# Pulseq sequence file
# Created by PyPulseq

[VERSION]
major 1
minor 4
revision 0

[DEFINITIONS]
AdcRasterTime 1e-07 
BlockDurationRaster 1e-05 
GradientRasterTime 1e-05 
RadiofrequencyRasterTime 1e-06 

# Format of blocks:
# NUM DUR RF  GX  GY  GZ  ADC  EXT
[BLOCKS]
    1 1036   2   0   0   0  0  0
    2 36162   0   0   1   0  0  0
    3 180   1   0   0   0  0  0
    4 582   0   4   4   3  1  0
    5 180   3   5   5   2  0  1
    6 582   0   6   4   3  2  0
    7 180   4   7   5   2  0  1
    8 582   0   8   4   3  3  0
    9 180   5   9   5   2  0  1
   10 582   0  10   4   3  4  0
   11 180   6  11   5   2  0  1
   12 582   0  12   4   3  5  0
   13 180   7  13   5   2  0  1
   14 582   0  14   4   3  6  0
   15 180   8  15   5   2  0  1
   16 582   0  16   4   3  7  0
   17 180   9  17   5   2  0  1
   18 582   0  18   4   3  8  0
   19 180  10  19   5   2  0  1
   20 582   0  20   4   3  9  0
   21 180  11  21   5   2  0  1
   22 582   0  22   4   3 10  0
   23 180   7  23   5   2  0  1
   24 582   0  24   4   3  6  0
   25 180  12  25   5   2  0  1
   26 582   0  26   4   3 11  0
   27 180  13  27   5   2  0  1
   28 582   0  28   4   3 12  0
   29 180  14  29   5   2  0  1
   30 582   0  30   4   3 13  0
   31 180  15  31   5   2  0  1
   32 582   0  32   4   3 14  0
   33 180   1  33   5   2  0  1
   34 582   0  34   4   3  1  0
   35 180  16  35   5   2  0  1
   36 582   0  36   4   3 15  0
   37 180  17  37   5   2  0  1
   38 582   0  38   4   3 16  0
   39 180  14  39   5   2  0  1
   40 582   0  40   4   3 13  0
   41 180  18  41   5   2  0  1
   42 582   0  42   4   3 17  0
   43 180   6  43   5   2  0  1
   44 582   0  44   4   3  5  0
   45 180  19  45   5   2  0  1
   46 582   0  46   4   3 18  0
   47 180  20  47   5   2  0  1
   48 582   0  48   4   3 19  0
   49 180  10  49   5   2  0  1
   50 582   0  50   4   3  9  0
   51 180  21  51   5   2  0  1
   52 582   0  52   4   3 20  0
   53 180  11  53   5   2  0  1
   54 582   0  54   4   3 10  0
   55 180  19  55   5   2  0  1
   56 582   0  56   4   3 18  0
   57 180  22  57   5   2  0  1
   58 582   0  58   4   3 21  0
   59 180   5  59   5   2  0  1
   60 582   0  60   4   3  4  0
   61 180  23  61   5   2  0  1
   62 582   0  62   4   3 22  0
   63 180  15  63   5   2  0  1
   64 582   0  64   4   3 14  0
   65 180  16  65   5   2  0  1
   66 582   0  66   4   3 15  0
   67 180  24  67   5   2  0  1
   68 582   0  68   4   3 23  0
   69 180   3  69   5   2  0  1
   70 582   0  70   4   3  2  0
   71 180  23  71   5   2  0  1
   72 582   0  72   4   3 22  0
   73 180  18  73   5   2  0  1
   74 582   0  74   4   3 17  0
   75 180  12  75   5   2  0  1
   76 582   0  76   4   3 11  0
   77 180  25  77   5   2  0  1
   78 582   0  78   4   3 24  0
   79 180   8  79   5   2  0  1
   80 582   0  80   4   3  7  0
   81 180  21  81   5   2  0  1
   82 582   0  82   4   3 20  0
   83 180  21  83   5   2  0  1
   84 582   0  84   4   3 20  0
   85 180   8  85   5   2  0  1
   86 582   0  86   4   3  7  0
   87 180  25  87   5   2  0  1
   88 582   0  88   4   3 24  0
   89 180  12  89   5   2  0  1
   90 582   0  90   4   3 11  0
   91 180  18  91   5   2  0  1
   92 582   0  92   4   3 17  0
   93 180  23  93   5   2  0  1
   94 582   0  94   4   3 22  0
   95 180   3  95   5   2  0  1
   96 582   0  96   4   3  2  0
   97 180  24  97   5   2  0  1
   98 582   0  98   4   3 23  0
   99 180  16  99   5   2  0  1
  100 582   0 100   4   3 15  0
  101 180  15 101   5   2  0  1
  102 582   0 102   4   3 14  0
  103 180  23 103   5   2  0  1
  104 582   0 104   4   3 22  0
  105 180   5 105   5   2  0  1
  106 582   0 106   4   3  4  0
  107 180  22 107   5   2  0  1
  108 582   0 108   4   3 21  0
  109 180  19 109   5   2  0  1
  110 582   0 110   4   3 18  0
  111 180  11 111   5   2  0  1
  112 582   0 112   4   3 10  0
  113 180  21 113   5   2  0  1
  114 582   0 114   4   3 20  0
  115 180  10 115   5   2  0  1
  116 582   0 116   4   3  9  0
  117 180  20 117   5   2  0  1
  118 582   0 118   4   3 19  0
  119 180  19 119   5   2  0  1
  120 582   0 120   4   3 18  0
  121 180   6 121   5   2  0  1
  122 582   0 122   4   3  5  0
  123 180  18 123   5   2  0  1
  124 582   0 124   4   3 17  0
  125 180  14 125   5   2  0  1
  126 582   0 126   4   3 13  0
  127 180  17 127   5   2  0  1
  128 582   0 128   4   3 16  0
  129 180  16 129   5   2  0  1
  130 582   0 130   4   3 15  0
  131 180   1 131   5   2  0  1
  132 582   0 132   4   3  1  0
  133 180  15 133   5   2  0  1
  134 582   0 134   4   3 14  0
  135 180  14 135   5   2  0  1
  136 582   0 136   4   3 13  0
  137 180  13 137   5   2  0  1
  138 582   0 138   4   3 12  0
  139 180  12 139   5   2  0  1
  140 582   0 140   4   3 11  0
  141 180   7 141   5   2  0  1
  142 582   0 142   4   3  6  0
  143 180  11 143   5   2  0  1
  144 582   0 144   4   3 10  0
  145 180  10 145   5   2  0  1
  146 582   0 146   4   3  9  0
  147 180   9 147   5   2  0  1
  148 582   0 148   4   3  8  0
  149 180   8 149   5   2  0  1
  150 582   0 150   4   3  7  0
  151 180   7 151   5   2  0  1
  152 582   0 152   4   3  6  0
  153 180   6 153   5   2  0  1
  154 582   0 154   4   3  5  0
  155 180   5 155   5   2  0  1
  156 582   0 156   4   3  4  0
  157 180   4 157   5   2  0  1
  158 582   0 158   4   3  3  0
  159 180   3 159   5   2  0  1
  160 582   0 160   4   3  2  0
  161 180   1 161   5   2  0  1
  162 582   0 162   4   3  1  0
  163 180   1 163   5   2  0  1
  164 582   0 164   4   3  1  0
  165 180   3 165   5   2  0  1
  166 582   0 166   4   3  2  0
  167 180   4 167   5   2  0  1
  168 582   0 168   4   3  3  0
  169 180   5 169   5   2  0  1
  170 582   0 170   4   3  4  0
  171 180   6 171   5   2  0  1
  172 582   0 172   4   3  5  0
  173 180   7 173   5   2  0  1
  174 582   0 174   4   3  6  0
  175 180   8 175   5   2  0  1
  176 582   0 176   4   3  7  0
  177 180   9 177   5   2  0  1
  178 582   0 178   4   3  8  0
  179 180  10 179   5   2  0  1
  180 582   0 180   4   3  9  0
  181 180  11 181   5   2  0  1
  182 582   0 182   4   3 10  0
  183 180   7 183   5   2  0  1
  184 582   0 184   4   3  6  0
  185 180  12 185   5   2  0  1
  186 582   0 186   4   3 11  0
  187 180  13 187   5   2  0  1
  188 582   0 188   4   3 12  0
  189 180  14 189   5   2  0  1
  190 582   0 190   4   3 13  0
  191 180  15 191   5   2  0  1
  192 582   0 192   4   3 14  0
  193 180   1 193   5   2  0  1
  194 582   0 194   4   3  1  0
  195 180  16 195   5   2  0  1
  196 582   0 196   4   3 15  0
  197 180  17 197   5   2  0  1
  198 582   0 195   4   3 16  0
  199 180  14 194   5   2  0  1
  200 582   0 193   4   3 13  0
  201 180  18 192   5   2  0  1
  202 582   0 191   4   3 17  0
  203 180   6 190   5   2  0  1
  204 582   0 189   4   3  5  0
  205 180  19 188   5   2  0  1
  206 582   0 187   4   3 18  0
  207 180  20 186   5   2  0  1
  208 582   0 185   4   3 19  0
  209 180  10 184   5   2  0  1
  210 582   0 183   4   3  9  0
  211 180  21 182   5   2  0  1
  212 582   0 181   4   3 20  0
  213 180  11 180   5   2  0  1
  214 582   0 179   4   3 10  0
  215 180  19 178   5   2  0  1
  216 582   0 177   4   3 18  0
  217 180  22 176   5   2  0  1
  218 582   0 175   4   3 21  0
  219 180   5 174   5   2  0  1
  220 582   0 173   4   3  4  0
  221 180  23 172   5   2  0  1
  222 582   0 171   4   3 22  0
  223 180  15 170   5   2  0  1
  224 582   0 169   4   3 14  0
  225 180  16 168   5   2  0  1
  226 582   0 167   4   3 15  0
  227 180  24 166   5   2  0  1
  228 582   0 165   4   3 23  0
  229 180   3 164   5   2  0  1
  230 582   0 163   4   3  2  0
  231 180  23 162   5   2  0  1
  232 582   0 161   4   3 22  0
  233 180  18 160   5   2  0  1
  234 582   0 159   4   3 17  0
  235 180  12 158   5   2  0  1
  236 582   0 157   4   3 11  0
  237 180  25 156   5   2  0  1
  238 582   0 155   4   3 24  0
  239 180   8 154   5   2  0  1
  240 582   0 153   4   3  7  0
  241 180  21 152   5   2  0  1
  242 582   0 151   4   3 20  0
  243 180  21 150   5   2  0  1
  244 582   0 149   4   3 20  0
  245 180   8 148   5   2  0  1
  246 582   0 147   4   3  7  0
  247 180  25 146   5   2  0  1
  248 582   0 145   4   3 24  0
  249 180  12 144   5   2  0  1
  250 582   0 143   4   3 11  0
  251 180  18 142   5   2  0  1
  252 582   0 141   4   3 17  0
  253 180  23 140   5   2  0  1
  254 582   0 139   4   3 22  0
  255 180   3 138   5   2  0  1
  256 582   0 137   4   3  2  0
  257 180  24 136   5   2  0  1
  258 582   0 135   4   3 23  0
  259 180  16 134   5   2  0  1
  260 582   0 133   4   3 15  0
  261 180  15 132   5   2  0  1
  262 582   0 131   4   3 14  0
  263 180  23 130   5   2  0  1
  264 582   0 129   4   3 22  0
  265 180   5 128   5   2  0  1
  266 582   0 127   4   3  4  0
  267 180  22 126   5   2  0  1
  268 582   0 125   4   3 21  0
  269 180  19 124   5   2  0  1
  270 582   0 123   4   3 18  0
  271 180  11 122   5   2  0  1
  272 582   0 121   4   3 10  0
  273 180  21 120   5   2  0  1
  274 582   0 119   4   3 20  0
  275 180  10 118   5   2  0  1
  276 582   0 117   4   3  9  0
  277 180  20 116   5   2  0  1
  278 582   0 115   4   3 19  0
  279 180  19 114   5   2  0  1
  280 582   0 113   4   3 18  0
  281 180   6 112   5   2  0  1
  282 582   0 111   4   3  5  0
  283 180  18 110   5   2  0  1
  284 582   0 109   4   3 17  0
  285 180  14 108   5   2  0  1
  286 582   0 107   4   3 13  0
  287 180  17 106   5   2  0  1
  288 582   0 105   4   3 16  0
  289 180  16 104   5   2  0  1
  290 582   0 103   4   3 15  0
  291 180   1 102   5   2  0  1
  292 582   0 101   4   3  1  0
  293 180  15 100   5   2  0  1
  294 582   0  99   4   3 14  0
[RF]
1      194.444 5 6 7 1680 0 0
2      563.681 8 9 10 100 0 0
3      194.444 5 6 7 1680 0 2.04204
4      194.444 5 6 7 1680 0 6.12611
5      194.444 5 6 7 1680 0 5.96903
6      194.444 5 6 7 1680 0 1.5708
7      194.444 5 6 7 1680 0 5.49779
8      194.444 5 6 7 1680 0 5.18363
9      194.444 5 6 7 1680 0 0.628319
10      194.444 5 6 7 1680 0 4.39823
11      194.444 5 6 7 1680 0 3.92699
12      194.444 5 6 7 1680 0 2.82743
13      194.444 5 6 7 1680 0 2.19911
14      194.444 5 6 7 1680 0 3.61283
15      194.444 5 6 7 1680 0 0.785398
16      194.444 5 6 7 1680 0 1.25664
17      194.444 5 6 7 1680 0 4.55531
18      194.444 5 6 7 1680 0 4.71239
19      194.444 5 6 7 1680 0 0.471239
20      194.444 5 6 7 1680 0 1.41372
21      194.444 5 6 7 1680 0 3.14159
22      194.444 5 6 7 1680 0 5.34071
23      194.444 5 6 7 1680 0 2.35619
24      194.444 5 6 7 1680 0 3.76991
25      194.444 5 6 7 1680 0 2.98451

# Format of arbitrary gradients:
#   time_shape_id of 0 means default timing (stepping with grad_raster starting at 1/2 of grad_raster)
# id amplitude amp_shape_id time_shape_id delay
# ..      Hz/m       ..         ..          us
[GRADIENTS]
2  1.01723e+06 1 2 0
3 -1.01387e+06 3 4 0

# Format of trapezoid gradients:
# id amplitude rise flat fall delay
# ..      Hz/m   us   us   us    us
[TRAP]
 1       404040 100 9800 100   0
 4  1.02041e+06 240  250 240   0
 5 -1.02041e+06 240  250 240   0
 6  1.00978e+06 240  250 240   0
 7 -1.00978e+06 240  250 240   0
 8       999150 240  250 240   0
 9      -999150 240  250 240   0
10       988520 240  250 240   0
11      -988520 240  250 240   0
12       977891 240  250 240   0
13      -977891 240  250 240   0
14       967262 240  250 240   0
15      -967262 240  250 240   0
16       956633 240  250 240   0
17      -956633 240  250 240   0
18       946003 240  250 240   0
19      -946003 240  250 240   0
20       935374 240  250 240   0
21      -935374 240  250 240   0
22       924745 240  250 240   0
23      -924745 240  250 240   0
24       914116 240  250 240   0
25      -914116 240  250 240   0
26       903486 240  250 240   0
27      -903486 240  250 240   0
28       892857 240  250 240   0
29      -892857 240  250 240   0
30       882228 240  250 240   0
31      -882228 240  250 240   0
32       871599 240  250 240   0
33      -871599 240  250 240   0
34       860969 240  250 240   0
35      -860969 240  250 240   0
36       850340 240  250 240   0
37      -850340 240  250 240   0
38       839711 240  250 240   0
39      -839711 240  250 240   0
40       829082 240  250 240   0
41      -829082 240  250 240   0
42       818452 240  250 240   0
43      -818452 240  250 240   0
44       807823 240  250 240   0
45      -807823 240  250 240   0
46       797194 240  250 240   0
47      -797194 240  250 240   0
48       786565 240  250 240   0
49      -786565 240  250 240   0
50       775935 240  250 240   0
51      -775935 240  250 240   0
52       765306 240  250 240   0
53      -765306 240  250 240   0
54       754677 240  250 240   0
55      -754677 240  250 240   0
56       744048 240  250 240   0
57      -744048 240  250 240   0
58       733418 240  250 240   0
59      -733418 240  250 240   0
60       722789 240  250 240   0
61      -722789 240  250 240   0
62       712160 240  250 240   0
63      -712160 240  250 240   0
64       701531 240  250 240   0
65      -701531 240  250 240   0
66       690901 240  250 240   0
67      -690901 240  250 240   0
68       680272 240  250 240   0
69      -680272 240  250 240   0
70       669643 240  250 240   0
71      -669643 240  250 240   0
72       659014 240  250 240   0
73      -659014 240  250 240   0
74       648384 240  250 240   0
75      -648384 240  250 240   0
76       637755 240  250 240   0
77      -637755 240  250 240   0
78       627126 240  250 240   0
79      -627126 240  250 240   0
80       616497 240  250 240   0
81      -616497 240  250 240   0
82       605867 240  250 240   0
83      -605867 240  250 240   0
84       595238 240  250 240   0
85      -595238 240  250 240   0
86       584609 240  250 240   0
87      -584609 240  250 240   0
88       573980 240  250 240   0
89      -573980 240  250 240   0
90       563350 240  250 240   0
91      -563350 240  250 240   0
92       552721 240  250 240   0
93      -552721 240  250 240   0
94       542092 240  250 240   0
95      -542092 240  250 240   0
96       531463 240  250 240   0
97      -531463 240  250 240   0
98       520833 240  250 240   0
99      -520833 240  250 240   0
100       510204 240  250 240   0
101      -510204 240  250 240   0
102       499575 240  250 240   0
103      -499575 240  250 240   0
104       488946 240  250 240   0
105      -488946 240  250 240   0
106       478316 240  250 240   0
107      -478316 240  250 240   0
108       467687 240  250 240   0
109      -467687 240  250 240   0
110       457058 240  250 240   0
111      -457058 240  250 240   0
112       446429 240  250 240   0
113      -446429 240  250 240   0
114       435799 240  250 240   0
115      -435799 240  250 240   0
116       425170 240  250 240   0
117      -425170 240  250 240   0
118       414541 240  250 240   0
119      -414541 240  250 240   0
120       403912 240  250 240   0
121      -403912 240  250 240   0
122       393282 240  250 240   0
123      -393282 240  250 240   0
124       382653 240  250 240   0
125      -382653 240  250 240   0
126       372024 240  250 240   0
127      -372024 240  250 240   0
128       361395 240  250 240   0
129      -361395 240  250 240   0
130       350765 240  250 240   0
131      -350765 240  250 240   0
132       340136 240  250 240   0
133      -340136 240  250 240   0
134       329507 240  250 240   0
135      -329507 240  250 240   0
136       318878 240  250 240   0
137      -318878 240  250 240   0
138       308248 240  250 240   0
139      -308248 240  250 240   0
140       297619 240  250 240   0
141      -297619 240  250 240   0
142       286990 240  250 240   0
143      -286990 240  250 240   0
144       276361 240  250 240   0
145      -276361 240  250 240   0
146       265731 240  250 240   0
147      -265731 240  250 240   0
148       255102 240  250 240   0
149      -255102 240  250 240   0
150       244473 240  250 240   0
151      -244473 240  250 240   0
152       233844 240  250 240   0
153      -233844 240  250 240   0
154       223214 240  250 240   0
155      -223214 240  250 240   0
156       212585 240  250 240   0
157      -212585 240  250 240   0
158       201956 240  250 240   0
159      -201956 240  250 240   0
160       191327 240  250 240   0
161      -191327 240  250 240   0
162       180697 240  250 240   0
163      -180697 240  250 240   0
164       170068 240  250 240   0
165      -170068 240  250 240   0
166       159439 240  250 240   0
167      -159439 240  250 240   0
168       148810 240  250 240   0
169      -148810 240  250 240   0
170       138180 240  250 240   0
171      -138180 240  250 240   0
172       127551 240  250 240   0
173      -127551 240  250 240   0
174       116922 240  250 240   0
175      -116922 240  250 240   0
176       106293 240  250 240   0
177      -106293 240  250 240   0
178      95663.3 240  250 240   0
179     -95663.3 240  250 240   0
180        85034 240  250 240   0
181       -85034 240  250 240   0
182      74404.8 240  250 240   0
183     -74404.8 240  250 240   0
184      63775.5 240  250 240   0
185     -63775.5 240  250 240   0
186      53146.3 240  250 240   0
187     -53146.3 240  250 240   0
188        42517 240  250 240   0
189       -42517 240  250 240   0
190      31887.8 240  250 240   0
191     -31887.8 240  250 240   0
192      21258.5 240  250 240   0
193     -21258.5 240  250 240   0
194      10629.3 240  250 240   0
195     -10629.3 240  250 240   0
196           -0 240  250 240   0
197            0 240  250 240   0
198   1.0119e+06 240  250 240   0
199  -1.0119e+06 240  250 240   0
200   1.0034e+06 240  250 240   0
201  -1.0034e+06 240  250 240   0
202       994898 240  250 240   0
203      -994898 240  250 240   0
204       986395 240  250 240   0
205      -986395 240  250 240   0
206       969388 240  250 240   0
207      -969388 240  250 240   0
208       960884 240  250 240   0
209      -960884 240  250 240   0
210       952381 240  250 240   0
211      -952381 240  250 240   0
212       943878 240  250 240   0
213      -943878 240  250 240   0
214       926871 240  250 240   0
215      -926871 240  250 240   0
216       918367 240  250 240   0
217      -918367 240  250 240   0
218       909864 240  250 240   0
219      -909864 240  250 240   0
220       901361 240  250 240   0
221      -901361 240  250 240   0
222       884354 240  250 240   0
223      -884354 240  250 240   0
224       875850 240  250 240   0
225      -875850 240  250 240   0
226       867347 240  250 240   0
227      -867347 240  250 240   0
228       858844 240  250 240   0
229      -858844 240  250 240   0
230       841837 240  250 240   0
231      -841837 240  250 240   0
232       833333 240  250 240   0
233      -833333 240  250 240   0
234       824830 240  250 240   0
235      -824830 240  250 240   0
236       816327 240  250 240   0
237      -816327 240  250 240   0
238       799320 240  250 240   0
239      -799320 240  250 240   0
240       790816 240  250 240   0
241      -790816 240  250 240   0
242       782313 240  250 240   0
243      -782313 240  250 240   0
244       773810 240  250 240   0
245      -773810 240  250 240   0
246       756803 240  250 240   0
247      -756803 240  250 240   0
248       748299 240  250 240   0
249      -748299 240  250 240   0
250       739796 240  250 240   0
251      -739796 240  250 240   0
252       731293 240  250 240   0
253      -731293 240  250 240   0
254       714286 240  250 240   0
255      -714286 240  250 240   0
256       705782 240  250 240   0
257      -705782 240  250 240   0
258       697279 240  250 240   0
259      -697279 240  250 240   0
260       688776 240  250 240   0
261      -688776 240  250 240   0
262       671769 240  250 240   0
263      -671769 240  250 240   0
264       663265 240  250 240   0
265      -663265 240  250 240   0
266       654762 240  250 240   0
267      -654762 240  250 240   0
268       646259 240  250 240   0
269      -646259 240  250 240   0
270       629252 240  250 240   0
271      -629252 240  250 240   0
272       620748 240  250 240   0
273      -620748 240  250 240   0
274       612245 240  250 240   0
275      -612245 240  250 240   0
276       603741 240  250 240   0
277      -603741 240  250 240   0
278       586735 240  250 240   0
279      -586735 240  250 240   0
280       578231 240  250 240   0
281      -578231 240  250 240   0
282       569728 240  250 240   0
283      -569728 240  250 240   0
284       561224 240  250 240   0
285      -561224 240  250 240   0
286       544218 240  250 240   0
287      -544218 240  250 240   0
288       535714 240  250 240   0
289      -535714 240  250 240   0
290       527211 240  250 240   0
291      -527211 240  250 240   0
292       518707 240  250 240   0
293      -518707 240  250 240   0
294       501701 240  250 240   0
295      -501701 240  250 240   0
296       493197 240  250 240   0
297      -493197 240  250 240   0
298       484694 240  250 240   0
299      -484694 240  250 240   0
300       476190 240  250 240   0
301      -476190 240  250 240   0
302       459184 240  250 240   0
303      -459184 240  250 240   0
304       450680 240  250 240   0
305      -450680 240  250 240   0
306       442177 240  250 240   0
307      -442177 240  250 240   0
308       433673 240  250 240   0
309      -433673 240  250 240   0
310       416667 240  250 240   0
311      -416667 240  250 240   0
312       408163 240  250 240   0
313      -408163 240  250 240   0
314       399660 240  250 240   0
315      -399660 240  250 240   0
316       391156 240  250 240   0
317      -391156 240  250 240   0
318       374150 240  250 240   0
319      -374150 240  250 240   0
320       365646 240  250 240   0
321      -365646 240  250 240   0
322       357143 240  250 240   0
323      -357143 240  250 240   0
324       348639 240  250 240   0
325      -348639 240  250 240   0
326       331633 240  250 240   0
327      -331633 240  250 240   0
328       323129 240  250 240   0
329      -323129 240  250 240   0
330       314626 240  250 240   0
331      -314626 240  250 240   0
332       306122 240  250 240   0
333      -306122 240  250 240   0
334       289116 240  250 240   0
335      -289116 240  250 240   0
336       280612 240  250 240   0
337      -280612 240  250 240   0
338       272109 240  250 240   0
339      -272109 240  250 240   0
340       263605 240  250 240   0
341      -263605 240  250 240   0
342       246599 240  250 240   0
343      -246599 240  250 240   0
344       238095 240  250 240   0
345      -238095 240  250 240   0
346       229592 240  250 240   0
347      -229592 240  250 240   0
348       221088 240  250 240   0
349      -221088 240  250 240   0
350       204082 240  250 240   0
351      -204082 240  250 240   0
352       195578 240  250 240   0
353      -195578 240  250 240   0
354       187075 240  250 240   0
355      -187075 240  250 240   0
356       178571 240  250 240   0
357      -178571 240  250 240   0
358       161565 240  250 240   0
359      -161565 240  250 240   0
360       153061 240  250 240   0
361      -153061 240  250 240   0
362       144558 240  250 240   0
363      -144558 240  250 240   0
364       136054 240  250 240   0
365      -136054 240  250 240   0
366       119048 240  250 240   0
367      -119048 240  250 240   0
368       110544 240  250 240   0
369      -110544 240  250 240   0
370       102041 240  250 240   0
371      -102041 240  250 240   0
372      93537.4 240  250 240   0
373     -93537.4 240  250 240   0
374      76530.6 240  250 240   0
375     -76530.6 240  250 240   0
376      68027.2 240  250 240   0
377     -68027.2 240  250 240   0
378      59523.8 240  250 240   0
379     -59523.8 240  250 240   0
380      51020.4 240  250 240   0
381     -51020.4 240  250 240   0
382      34013.6 240  250 240   0
383     -34013.6 240  250 240   0
384      25510.2 240  250 240   0
385     -25510.2 240  250 240   0
386      17006.8 240  250 240   0
387     -17006.8 240  250 240   0
388       8503.4 240  250 240   0
389      -8503.4 240  250 240   0

# Format of ADC events:
# id num dwell delay freq phase
# ..  ..    ns    us   Hz   rad
[ADC]
1 256 19600 790 0 0
2 256 19600 790 0 2.04204
3 256 19600 790 0 6.12611
4 256 19600 790 0 5.96903
5 256 19600 790 0 1.5708
6 256 19600 790 0 5.49779
7 256 19600 790 0 5.18363
8 256 19600 790 0 0.628319
9 256 19600 790 0 4.39823
10 256 19600 790 0 3.92699
11 256 19600 790 0 2.82743
12 256 19600 790 0 2.19911
13 256 19600 790 0 3.61283
14 256 19600 790 0 0.785398
15 256 19600 790 0 1.25664
16 256 19600 790 0 4.55531
17 256 19600 790 0 4.71239
18 256 19600 790 0 0.471239
19 256 19600 790 0 1.41372
20 256 19600 790 0 3.14159
21 256 19600 790 0 5.34071
22 256 19600 790 0 2.35619
23 256 19600 790 0 3.76991
24 256 19600 790 0 2.98451

# Format of extension lists:
# id type ref next_id
# next_id of 0 terminates the list
# Extension list is followed by extension specifications
[EXTENSIONS]
1 1 1 0
2 2 1 0
3 1 2 2

# Extension specification for setting labels:
# id set labelstring
extension LABELSET 2
1 0 PAR

# Extension specification for setting labels:
# id set labelstring
extension LABELINC 1
1 1 PAR
2 1 LIN

# Sequence Shapes
[SHAPES]

shape_id 1
num_samples 4
0.195922654
1
1
0

shape_id 2
num_samples 4
0
20
143
168

shape_id 3
num_samples 6
-0
1
1
-0
-0.196571788
-0.196571788

shape_id 4
num_samples 6
0
24
50
74
79
582

shape_id 5
num_samples 2
1
1

shape_id 6
num_samples 2
0
0

shape_id 7
num_samples 2
0
100

shape_id 8
num_samples 1024
0.0332689869
0.0335360565
0.0338052677
0.0340766374
0.034350183
0.0346259218
0.0349038714
0.0351840494
0.0354664736
0.0357511619
0.0360381325
0.0363274036
0.0366189935
0.0369129207
0.0372092039
0.037507862
0.0378089138
0.0381123785
0.0384182752
0.0387266236
0.0390374429
0.0393507531
0.039666574
0.0399849255
0.0403058279
0.0406293015
0.0409553668
0.0412840445
0.0416153554
0.0419493204
0.0422859608
0.0426252977
0.0429673529
0.0433121477
0.0436597042
0.0440100443
0.0443631901
0.0447191639
0.0450779884
0.0454396862
0.0458042801
0.0461717932
0.0465422487
0.04691567
0.0472920807
0.0476715046
0.0480539656
0.0484394879
0.0488280958
0.0492198138
0.0496146666
0.0500126791
0.0504138764
0.0508182839
0.0512259269
0.0516368312
0.0520510227
0.0524685274
0.0528893716
0.0533135818
0.0537411847
0.0541722072
0.0546066763
0.0550446195
0.0554860642
0.0559310381
0.0563795693
0.0568316859
0.0572874161
0.0577467888
0.0582098326
0.0586765766
0.05914705
0.0596212824
0.0600993035
0.0605811431
0.0610668315
0.0615563991
0.0620498764
0.0625472944
0.0630486841
0.0635540768
0.0640635041
0.0645769979
0.0650945902
0.0656163132
0.0661421996
0.066672282
0.0672065935
0.0677451674
0.0682880373
0.0688352368
0.0693868001
0.0699427613
0.0705031552
0.0710680164
0.07163738
0.0722112814
0.0727897561
0.0733728401
0.0739605693
0.0745529803
0.0751501096
0.0757519943
0.0763586715
0.0769701786
0.0775865535
0.0782078342
0.078834059
0.0794652664
0.0801014955
0.0807427852
0.0813891752
0.0820407051
0.0826974149
0.083359345
0.0840265359
0.0846990287
0.0853768644
0.0860600847
0.0867487312
0.0874428461
0.0881424718
0.0888476509
0.0895584266
0.0902748421
0.090996941
0.0917247674
0.0924583653
0.0931977795
0.0939430547
0.0946942361
0.0954513694
0.0962145002
0.0969836748
0.0977589396
0.0985403415
0.0993279274
0.100121745
0.100921842
0.101728266
0.102541066
0.103360291
0.10418599
0.105018212
0.105857006
0.106702424
0.107554515
0.108413331
0.109278922
0.11015134
0.111030636
0.111916863
0.112810074
0.11371032
0.114617656
0.115532135
0.11645381
0.117382736
0.118318968
0.11926256
0.120213568
0.121172048
0.122138054
0.123111644
0.124092875
0.125081803
0.126078485
0.127082981
0.128095347
0.129115642
0.130143924
0.131180254
0.132224691
0.133277294
0.134338124
0.135407241
0.136484707
0.137570582
0.138664928
0.139767808
0.140879283
0.141999417
0.143128272
0.144265912
0.145412401
0.146567803
0.147732182
0.148905604
0.150088132
0.151279834
0.152480774
0.15369102
0.154910637
0.156139692
0.157378253
0.158626388
0.159884164
0.161151649
0.162428912
0.163716022
0.165013049
0.166320061
0.167637128
0.168964322
0.170301712
0.171649368
0.173007364
0.174375768
0.175754655
0.177144094
0.178544159
0.179954923
0.181376458
0.182808837
0.184252134
0.185706423
0.187171777
0.18864827
0.190135978
0.191634975
0.193145335
0.194667135
0.196200449
0.197745353
0.199301923
0.200870235
0.202450366
0.204042391
0.205646387
0.207262432
0.208890602
0.210530974
0.212183626
0.213848635
0.215526078
0.217216033
0.218918579
0.220633792
0.222361751
0.224102534
0.225856219
0.227622884
0.229402608
0.231195467
0.233001542
0.234820909
0.236653648
0.238499836
0.240359551
0.242232872
0.244119877
0.246020643
0.247935248
0.249863771
0.251806288
0.253762876
0.255733614
0.257718579
0.259717846
0.261731492
0.263759595
0.265802229
0.267859471
0.269931395
0.272018078
0.274119594
0.276236017
0.278367421
0.280513879
0.282675465
