# Pulseq sequence file
# Created by PyPulseq

[VERSION]
major 1
minor 4
revision 6

[DEFINITIONS]
AdcRasterTime 1e-07 
BlockDurationRaster 1e-05 
FOV 0.2 0.2 0.005 
GradientRasterTime 1e-05 
Name grappa_acs 
RadiofrequencyRasterTime 1e-06 
Size 64 64 1 
TotalDuration 20.32256 

# Format of blocks:
# NUM DUR RF  GX  GY  GZ  ADC  EXT
[BLOCKS]
  1 500000   0   0   0   0  0  0
  2  46   0   0   0   1  0  0
  3 120   1   0   0   2  0  0
  4 338   0   3   0   4  1  0
  5  46   0   0   0   1  0  0
  6 120   2   0   0   2  0  0
  7 338   0   5   6   7  2  0
  8  46   0   0   0   1  0  0
  9 120   3   0   0   2  0  0
 10 338   0   5   8   7  3  0
 11  46   0   0   0   1  0  0
 12 120   4   0   0   2  0  0
 13 338   0   5   9   7  4  0
 14  46   0   0   0   1  0  0
 15 120   5   0   0   2  0  0
 16 338   0   5  10   7  5  0
 17  46   0   0   0   1  0  0
 18 120   6   0   0   2  0  0
 19 338   0   5  11   7  6  0
 20  46   0   0   0   1  0  0
 21 120   7   0   0   2  0  0
 22 338   0   5  12   7  7  0
 23  46   0   0   0   1  0  0
 24 120   8   0   0   2  0  0
 25 338   0   5  13   7  8  0
 26  46   0   0   0   1  0  0
 27 120   4   0   0   2  0  0
 28 338   0   5  14   7  4  0
 29  46   0   0   0   1  0  0
 30 120   6   0   0   2  0  0
 31 338   0   5  15   7  6  0
 32  46   0   0   0   1  0  0
 33 120   9   0   0   2  0  0
 34 338   0   5  16   7  9  0
 35  46   0   0   0   1  0  0
 36 120   4   0   0   2  0  0
 37 338   0   5  17   7  4  0
 38  46   0   0   0   1  0  0
 39 120  10   0   0   2  0  0
 40 338   0   5  18   7 10  0
 41  46   0   0   0   1  0  0
 42 120   2   0   0   2  0  0
 43 338   0   5  19   7  2  0
 44  46   0   0   0   1  0  0
 45 120   6   0   0   2  0  0
 46 338   0   5  20   7  6  0
 47  46   0   0   0   1  0  0
 48 120  11   0   0   2  0  0
 49 338   0   5  21   7  1  0
 50  46   0   0   0   1  0  0
 51 120  12   0   0   2  0  0
 52 338   0   5  22   7 11  0
 53  46   0   0   0   1  0  0
 54 120   3   0   0   2  0  0
 55 338   0   5  23   7  3  0
 56  46   0   0   0   1  0  0
 57 120   7   0   0   2  0  0
 58 338   0   5  24   7  7  0
 59  46   0   0   0   1  0  0
 60 120   5   0   0   2  0  0
 61 338   0   5  25   7  5  0
 62  46   0   0   0   1  0  0
 63 120  11   0   0   2  0  0
 64 338   0   5  26   7  1  0
 65  46   0   0   0   1  0  0
 66 120   7   0   0   2  0  0
 67 338   0   5  27   7  7  0
 68  46   0   0   0   1  0  0
 69 120  13   0   0   2  0  0
 70 338   0   5  28   7 12  0
 71  46   0   0   0   1  0  0
 72 120   4   0   0   2  0  0
 73 338   0   5  29   7  4  0
 74  46   0   0   0   1  0  0
 75 120  11   0   0   2  0  0
 76 338   0   5  30   7  1  0
 77  46   0   0   0   1  0  0
 78 120   9   0   0   2  0  0
 79 338   0   5  31   7  9  0
 80  46   0   0   0   1  0  0
 81 120   7   0   0   2  0  0
 82 338   0   5  32   7  7  0
 83  46   0   0   0   1  0  0
 84 120  10   0   0   2  0  0
 85 338   0   5  33   7 10  0
 86  46   0   0   0   1  0  0
 87 120  12   0   0   2  0  0
 88 338   0   5  34   7 11  0
 89  46   0   0   0   1  0  0
 90 120   6   0   0   2  0  0
 91 338   0   5  35   7  6  0
 92  46   0   0   0   1  0  0
 93 120   6   0   0   2  0  0
 94 338   0   5  36   7  6  0
 95  46   0   0   0   1  0  0
 96 120  12   0   0   2  0  0
 97 338   0   5  37   7 11  0
 98  46   0   0   0   1  0  0
 99 120  10   0   0   2  0  0
100 338   0   5  38   7 10  0
101  46   0   0   0   1  0  0
102 120   7   0   0   2  0  0
103 338   0   5  39   7  7  0
104  46   0   0   0   1  0  0
105 120   9   0   0   2  0  0
106 338   0   5  40   7  9  0
107  46   0   0   0   1  0  0
108 120  11   0   0   2  0  0
109 338   0   5  41   7  1  0
110  46   0   0   0   1  0  0
111 120   4   0   0   2  0  0
112 338   0   5  42   7  4  0
113  46   0   0   0   1  0  0
114 120  13   0   0   2  0  0
115 338   0   5  43   7 12  0
116  46   0   0   0   1  0  0
117 120   7   0   0   2  0  0
118 338   0   5  44   7  7  0
119  46   0   0   0   1  0  0
120 120  11   0   0   2  0  0
121 338   0   5  45   7  1  0
122  46   0   0   0   1  0  0
123 120   5   0   0   2  0  0
124 338   0   5  46   7  5  0
125  46   0   0   0   1  0  0
126 120   7   0   0   2  0  0
127 338   0   5  47   7  7  0
128  46   0   0   0   1  0  0
129 120   3   0   0   2  0  0
130 338   0   5  48   7  3  0
131  46   0   0   0   1  0  0
132 120  12   0   0   2  0  0
133 338   0   5  49   7 11  0
134  46   0   0   0   1  0  0
135 120  11   0   0   2  0  0
136 338   0   5  50   7  1  0
137  46   0   0   0   1  0  0
138 120   6   0   0   2  0  0
139 338   0   5  51   7  6  0
140  46   0   0   0   1  0  0
141 120   2   0   0   2  0  0
142 338   0   5  52   7  2  0
143  46   0   0   0   1  0  0
144 120  10   0   0   2  0  0
145 338   0   5  53   7 10  0
146  46   0   0   0   1  0  0
147 120   4   0   0   2  0  0
148 338   0   5  54   7  4  0
149  46   0   0   0   1  0  0
150 120   9   0   0   2  0  0
151 338   0   5  55   7  9  0
152  46   0   0   0   1  0  0
153 120   6   0   0   2  0  0
154 338   0   5  56   7  6  0
155  46   0   0   0   1  0  0
156 120   4   0   0   2  0  0
157 338   0   5  57   7  4  0
158  46   0   0   0   1  0  0
159 120   8   0   0   2  0  0
160 338   0   5  58   7  8  0
161  46   0   0   0   1  0  0
162 120   7   0   0   2  0  0
163 338   0   5  59   7  7  0
164  46   0   0   0   1  0  0
165 120   6   0   0   2  0  0
166 338   0   5  60   7  6  0
167  46   0   0   0   1  0  0
168 120   5   0   0   2  0  0
169 338   0   5  61   7  5  0
170  46   0   0   0   1  0  0
171 120   4   0   0   2  0  0
172 338   0   5  62   7  4  0
173  46   0   0   0   1  0  0
174 120   3   0   0   2  0  0
175 338   0   5  63   7  3  0
176  46   0   0   0   1  0  0
177 120   2   0   0   2  0  0
178 338   0   5  64   7  2  0
179  46   0   0   0   1  0  0
180 120  11   0   0   2  0  0
181 338   0   5  65   7  1  0
182  46   0   0   0   1  0  0
183 120  11   0   0   2  0  0
184 338   0   5  66   7  1  0
185  46   0   0   0   1  0  0
186 120   2   0   0   2  0  0
187 338   0   5  67   7  2  0
188  46   0   0   0   1  0  0
189 120   3   0   0   2  0  0
190 338   0   5  68   7  3  0
191  46   0   0   0   1  0  0
192 120   4   0   0   2  0  0
193 338   0   5  69   7  4  0
194 1500000   0   0   0   0  0  0

# Format of RF events:
# id amplitude mag_id phase_id time_shape_id delay freq phase shim_mag_ID shim_phase_ID
# ..        Hz   ....     ....          ....    us   Hz   rad  ....    ....
[RF]
1      76.8014 1 2 0 100 0 1.46608 0 0
2      76.8014 1 2 0 100 0 2.93215 0 0
3      76.8014 1 2 0 100 0 5.86431 0 0
4      76.8014 1 2 0 100 0 3.97935 0 0
5      76.8014 1 2 0 100 0 3.56047 0 0
6      76.8014 1 2 0 100 0 4.60767 0 0
7      76.8014 1 2 0 100 0 0.837758 0 0
8      76.8014 1 2 0 100 0 4.81711 0 0
9      76.8014 1 2 0 100 0 0.418879 0 0
10      76.8014 1 2 0 100 0 2.72271 0 0
11      76.8014 1 2 0 100 0 1.46608 0 0
12      76.8014 1 2 0 100 0 6.07375 0 0
13      76.8014 1 2 0 100 0 1.67552 0 0

# Format of arbitrary gradients:
#   time_shape_id of 0 means default timing (stepping with grad_raster starting at 1/2 of grad_raster)
# id amplitude amp_shape_id time_shape_id delay
# ..      Hz/m       ..         ..          us
[GRADIENTS]
3    -1.92e+06 3 4 0
4      -880000 5 4 0
5    -1.92e+06 3 4 0
6       -10000 6 4 0
7      -880000 5 4 0
8        10000 7 4 0
9       -20000 6 4 0
10        20000 7 4 0
11       -30000 6 4 0
12        30000 7 4 0
13       -40000 6 4 0
14        40000 7 4 0
15       -50000 6 4 0
16        50000 7 4 0
17       -60000 6 4 0
18        60000 7 4 0
19       -70000 6 4 0
20        70000 7 4 0
21       -80000 6 4 0
22        80000 7 4 0
23       -90000 6 4 0
24        90000 7 4 0
25      -100000 6 4 0
26       100000 7 4 0
27      -110000 6 4 0
28       110000 7 4 0
29      -120000 6 4 0
30       120000 7 4 0
31      -130000 6 4 0
32       130000 7 4 0
33      -140000 6 4 0
34       140000 7 4 0
35      -150000 6 4 0
36       150000 7 4 0
37      -160000 6 4 0
38       160000 7 4 0
39      -170000 6 4 0
40       170000 7 4 0
41      -180000 6 4 0
42       180000 7 4 0
43      -190000 6 4 0
44       190000 7 4 0
45      -200000 6 4 0
46       200000 7 4 0
47      -210000 6 4 0
48       210000 7 4 0
49      -220000 6 4 0
50       220000 7 4 0
51      -230000 6 4 0
52       230000 7 4 0
53      -240000 6 4 0
54       240000 7 4 0
55      -250000 6 4 0
56       250000 7 4 0
57      -260000 6 4 0
58       260000 7 4 0
59      -270000 6 4 0
60       270000 7 4 0
61      -280000 6 4 0
62       280000 7 4 0
63      -290000 6 4 0
64       290000 7 4 0
65      -300000 6 4 0
66       300000 7 4 0
67      -310000 6 4 0
68       310000 7 4 0
69      -320000 6 4 0

# Format of trapezoid gradients:
# id amplitude rise flat fall delay
# ..      Hz/m   us   us   us    us
[TRAP]
 1 -1.91304e+06 230    0 230   0
 2       800000 100 1000 100   0

# Format of ADC events:
# id num dwell delay freq phase
# ..  ..    ns    us   Hz   rad
[ADC]
1 64 20000 1100 0 1.46608
2 64 20000 1100 0 2.93215
3 64 20000 1100 0 5.86431
4 64 20000 1100 0 3.97935
5 64 20000 1100 0 3.56047
6 64 20000 1100 0 4.60767
7 64 20000 1100 0 0.837758
8 64 20000 1100 0 4.81711
9 64 20000 1100 0 0.418879
10 64 20000 1100 0 2.72271
11 64 20000 1100 0 6.07375
12 64 20000 1100 0 1.67552

# Sequence Shapes
[SHAPES]

shape_id 1
num_samples 1000
2.46987503e-09
6.68164436e-08
3.09920458e-07
8.51983185e-07
1.8139994e-06
3.31769462e-06
5.48546172e-06
8.44029687e-06
1.23057349e-05
1.72057839e-05
2.32648598e-05
3.06077193e-05
3.93593938e-05
4.96451212e-05
6.15902785e-05
7.53203133e-05
9.0960675e-05
0.000108636746
0.00012847377
0.000150596786
0.000175130554
0.000202199487
0.000231927578
0.000264438332
0.00029985469
0.000338298962
0.00037989275
0.000424756882
0.000473011336
0.000524775166
0.000580166435
0.000639302138
0.000702298131
0.000769269059
0.000840328283
0.000915587807
0.000995158206
0.00107914855
0.00116766635
0.00126081745
0.001358706
0.00146143433
0.00156910294
0.00168181038
0.00179965321
0.0019227259
0.00205112078
0.00218492798
0.00232423533
0.00246912832
0.00261969001
0.00277600097
0.00293813921
0.00310618011
0.00328019639
0.00346025796
0.00364643195
0.00383878258
0.00403737111
0.0042422558
0.00445349183
0.00467113121
0.00489522278
0.00512581209
0.00536294137
0.00560664948
0.00585697182
0.00611394028
0.00637758323
0.00664792539
0.00692498783
0.00720878789
0.00749933914
0.00779665132
0.0081007303
0.00841157802
0.00872919243
0.00905356747
0.00938469301
0.00972255481
0.0100671344
0.0104184093
0.0107763526
0.011140933
0.0115121153
0.0118898595
0.0122741214
0.0126648523
0.0130619991
0.0134655042
0.0138753055
0.014291336
0.0147135246
0.0151417953
0.0155760675
0.0160162559
0.0164622705
0.0169140168
0.0173713952
0.0178343015
0.018302627
0.0187762578
0.0192550753
0.0197389563
0.0202277726
0.0207213911
0.0212196741
0.0217224788
0.0222296577
0.0227410583
0.0232565234
0.0237758909
0.0242989938
0.0248256602
0.0253557136
0.0258889722
0.0264252499
0.0269643554
0.0275060927
0.0280502611
0.0285966549
0.0291450639
0.029695273
0.0302470623
0.0308002074
0.031354479
0.0319096433
0.0324654619
0.0330216916
0.0335780848
0.0341343894
0.0346903485
0.0352457012
0.0358001817
0.0363535202
0.0369054422
0.0374556692
0.0380039182
0.0385499021
0.0390933297
0.0396339054
0.0401713298
0.0407052993
0.0412355066
0.0417616401
0.0422833846
0.0428004212
0.0433124269
0.0438190754
0.0443200365
0.0448149767
0.0453035589
0.0457854425
0.0462602837
0.0467277354
0.0471874473
0.0476390659
0.0480822347
0.0485165944
0.0489417825
0.0493574338
0.0497631806
0.0501586521
0.0505434754
0.0509172749
0.0512796725
0.051630288
0.0519687388
0.0522946404
0.0526076061
0.0529072472
0.0531931734
0.0534649925
0.0537223105
0.0539647321
0.0541918604
0.0544032973
0.0545986431
0.0547774973
0.0549394583
0.0550841233
0.0552110888
0.0553199508
0.0554103043
0.0554817439
0.055533864
0.0555662583
0.0555785206
0.0555702446
0.0555410239
0.0554904523
0.0554181239
0.0553236331
0.0552065747
0.0550665443
0.0549031382
0.0547159532
0.0545045875
0.05426864
0.0540077109
0.0537214019
0.0534093157
0.0530710568
0.0527062314
0.0523144473
0.0518953143
0.0514484442
0.0509734507
0.0504699502
0.049937561
0.0493759042
0.0487846034
0.0481632849
0.0475115779
0.0468291145
0.0461155299
0.0453704626
0.0445935543
0.0437844502
0.042942799
0.0420682533
0.0411604692
0.0402191068
0.0392438304
0.0382343084
0.0371902132
0.036111222
0.0349970161
0.0338472818
0.0326617098
0.0314399958
0.0301818404
0.0288869494
0.0275550337
0.0261858094
0.024778998
0.0233343268
0.0218515285
0.0203303413
0.0187705097
0.0171717839
0.0155339201
0.0138566808
0.0121398346
0.0103831565
0.008586428
0.00674943716
0.00487197864
0.00295385387
0.00099487113
0.00100515437
0.00304640039
0.00512903756
0.00725322929
0.00941913171
0.0116268935
0.013876656
0.0161685529
0.0185027101
0.0208792461
0.0232982713
0.0257598884
0.028264192
0.0308112688
0.0334011973
0.036034048
0.0387098828
0.0414287556
0.0441907117
0.0469957882
0.0498440135
0.0527354075
0.0556699814
0.0586477378
0.0616686704
0.0647327645
0.067839996
0.0709903323
0.0741837318
0.0774201438
0.0806995087
0.0840217577
0.0873868129
0.0907945874
0.0942449851
0.0977379004
0.101273219
0.104850817
0.10847056
0.112132307
0.115835906
0.119581195
0.123368004
0.127196153
0.131065453
0.134975704
0.138926698
0.142918219
0.146950038
0.151021919
0.155133616
0.159284874
0.163475429
0.167705005
0.171973319
0.176280079
0.180624981
0.185007715
0.189427958
0.193885382
0.198379645
0.202910399
0.207477286
0.212079939
0.21671798
0.221391025
0.226098679
0.230840537
0.235616187
0.240425207
0.245267167
0.250141627
0.255048138
0.259986244
0.264955478
0.269955367
0.274985427
0.280045167
0.285134087
0.290251678
0.295397424
0.3005708
0.305771273
0.310998302
0.316251338
0.321529824
0.326833195
0.332160878
0.337512294
0.342886855
0.348283965
0.353703022
0.359143416
0.364604529
0.370085739
0.375586414
0.381105915
0.386643598
0.392198813
0.3977709
0.403359196
0.408963029
0.414581724
0.420214598
0.42586096
0.431520118
0.43719137
0.44287401
0.448567328
0.454270606
0.459983122
0.46570415
0.471432957
0.477168807
0.482910958
0.488658665
0.494411177
0.500167739
0.505927594
0.511689979
0.517454126
0.523219267
0.528984627
0.53474943
0.540512895
0.54627424
0.552032677
0.55778742
0.563537675
0.569282649
0.575021546
0.580753567
0.586477913
0.59219378
0.597900366
0.603596864
0.609282469
0.614956372
0.620617764
0.626265837
0.631899779
0.63751878
0.643122028
0.648708713
0.654278022
0.659829144
0.665361268
0.670873584
0.676365282
0.681835553
0.687283588
0.692708581
0.698109726
0.703486218
0.708837256
0.714162039
0.719459767
0.724729644
0.729970876
0.735182671
0.74036424
0.745514796
0.750633557
0.755719741
0.760772573
0.765791278
0.770775086
0.775723232
0.780634954
0.785509493
0.790346097
0.795144015
0.799902504
0.804620823
0.809298238
0.813934019
0.818527441
0.823077785
0.827584338
0.832046391
0.836463243
0.840834198
0.845158566
0.849435662
0.853664812
0.857845343
0.861976592
0.866057902
0.870088624
0.874068115
0.87799574
0.88187087
0.885692886
0.889461176
0.893175134
0.896834165
0.900437679
0.903985097
0.907475846
0.910909364
0.914285096
0.917602496
0.920861027
0.92406016
0.927199378
0.93027817
0.933296037
0.936252486
0.939147038
0.94197922
0.94474857
0.947454638
0.950096979
0.952675164
0.955188769
0.957637383
0.960020606
0.962338047
0.964589325
0.96677407
0.968891925
0.970942541
0.97292558
0.974840717
0.976687636
0.978466033
0.980175615
0.9818161
0.983387217
0.984888707
0.986320323
0.987681827
0.988972995
0.990193613
0.99134348
0.992422405
0.993430211
0.994366729
0.995231805
0.996025297
0.996747071
0.99739701
0.997975004
0.998480959
0.998914791
0.999276427
0.999565808
0.999782886
0.999927625
1
1
0.999927625
0.999782886
0.999565808
0.999276427
0.998914791
0.998480959
0.997975004
0.99739701
0.996747071
0.996025297
0.995231805
0.994366729
0.993430211
0.992422405
0.99134348
0.990193613
0.988972995
0.987681827
0.986320323
0.984888707
0.983387217
0.9818161
0.980175615
0.978466033
0.976687636
0.974840717
0.97292558
0.970942541
0.968891925
0.96677407
0.964589325
0.962338047
0.960020606
0.957637383
0.955188769
0.952675164
0.950096979
0.947454638
0.94474857
0.94197922
0.939147038
0.936252486
0.933296037
0.93027817
0.927199378
0.92406016
0.920861027
0.917602496
0.914285096
0.910909364
0.907475846
0.903985097
0.900437679
0.896834165
0.893175134
0.889461176
0.885692886
0.88187087
0.87799574
0.874068115
0.870088624
0.866057902
0.861976592
0.857845343
0.853664812
0.849435662
0.845158566
0.840834198
0.836463243
0.832046391
0.827584338
0.823077785
0.818527441
0.813934019
0.809298238
0.804620823
0.799902504
0.795144015
0.790346097
0.785509493
0.780634954
0.775723232
0.770775086
0.765791278
0.760772573
0.755719741
0.750633557
0.745514796
0.74036424
0.735182671
0.729970876
0.724729644
0.719459767
0.714162039
0.708837256
0.703486218
0.698109726
0.692708581
0.687283588
0.681835553
0.676365282
0.670873584
0.665361268
0.659829144
0.654278022
0.648708713
0.643122028
0.63751878
0.631899779
0.626265837
0.620617764
0.614956372
0.609282469
0.603596864
0.597900366
0.59219378
0.586477913
0.580753567
0.575021546
0.569282649
0.563537675
0.55778742
0.552032677
0.54627424
0.540512895
0.53474943
0.528984627
0.523219267
0.517454126
0.511689979
0.505927594
0.500167739
0.494411177
0.488658665
0.482910958
0.477168807
0.471432957
0.46570415
0.459983122
0.454270606
0.448567328
0.44287401
0.43719137
0.431520118
0.42586096
0.420214598
0.414581724
0.408963029
0.403359196
0.3977709
0.392198813
0.386643598
0.381105915
0.375586414
0.370085739
0.364604529
0.359143416
0.353703022
0.348283965
0.342886855
0.337512294
0.332160878
0.326833195
0.321529824
0.316251338
0.310998302
0.305771273
0.3005708
0.295397424
0.290251678
0.285134087
0.280045167
0.274985427
0.269955367
0.264955478
0.259986244
0.255048138
0.250141627
0.245267167
0.240425207
0.235616187
0.230840537
0.226098679
0.221391025
0.21671798
0.212079939
0.207477286
0.202910399
0.198379645
0.193885382
0.189427958
0.185007715
0.180624981
0.176280079
0.171973319
0.167705005
0.163475429
0.159284874
0.155133616
0.151021919
0.146950038
0.142918219
0.138926698
0.134975704
0.131065453
0.127196153
0.123368004
0.119581195
0.115835906
0.112132307
0.10847056
0.104850817
0.101273219
0.0977379004
0.0942449851
0.0907945874
0.0873868129
0.0840217577
0.0806995087
0.0774201438
0.0741837318
0.0709903323
0.067839996
0.0647327645
0.0616686704
0.0586477378
0.0556699814
0.0527354075
0.0498440135
0.0469957882
0.0441907117
0.0414287556
0.0387098828
0.036034048
0.0334011973
0.0308112688
0.028264192
0.0257598884
0.0232982713
0.0208792461
0.0185027101
0.0161685529
0.013876656
0.0116268935
0.00941913171
0.00725322929
0.00512903756
0.00304640039
0.00100515437
0.00099487113
0.00295385387
0.00487197864
0.00674943716
0.008586428
0.0103831565
0.0121398346
0.0138566808
0.0155339201
0.0171717839
0.0187705097
0.0203303413
0.0218515285
0.0233343268
0.024778998
0.0261858094
0.0275550337
0.0288869494
0.0301818404
0.0314399958
0.0326617098
0.0338472818
0.0349970161
0.036111222
0.0371902132
0.0382343084
0.0392438304
0.0402191068
0.0411604692
0.0420682533
0.042942799
0.0437844502
0.0445935543
0.0453704626
0.0461155299
0.0468291145
0.0475115779
0.0481632849
0.0487846034
0.0493759042
0.049937561
0.0504699502
0.0509734507
0.0514484442
0.0518953143
0.0523144473
0.0527062314
0.0530710568
0.0534093157
0.0537214019
0.0540077109
0.05426864
0.0545045875
0.0547159532
0.0549031382
0.0550665443
0.0552065747
0.0553236331
0.0554181239
0.0554904523
0.0555410239
0.0555702446
0.0555785206
0.0555662583
0.055533864
0.0554817439
0.0554103043
0.0553199508
0.0552110888
0.0550841233
0.0549394583
0.0547774973
0.0545986431
0.0544032973
0.0541918604
0.0539647321
0.0537223105
0.0534649925
0.0531931734
0.0529072472
0.0526076061
0.0522946404
0.0519687388
0.051630288
0.0512796725
0.0509172749
0.0505434754
0.0501586521
0.0497631806
0.0493574338
0.0489417825
0.0485165944
0.0480822347
0.0476390659
0.0471874473
0.0467277354
0.0462602837
0.0457854425
0.0453035589
0.0448149767
0.0443200365
0.0438190754
0.0433124269
0.0428004212
0.0422833846
0.0417616401
0.0412355066
0.0407052993
0.0401713298
0.0396339054
0.0390933297
0.0385499021
0.0380039182
0.0374556692
0.0369054422
0.0363535202
0.0358001817
0.0352457012
0.0346903485
0.0341343894
0.0335780848
0.0330216916
0.0324654619
0.0319096433
0.031354479
0.0308002074
0.0302470623
0.029695273
0.0291450639
0.0285966549
0.0280502611
0.0275060927
0.0269643554
0.0264252499
0.0258889722
0.0253557136
0.0248256602
0.0242989938
0.0237758909
0.0232565234
0.0227410583
0.0222296577
0.0217224788
0.0212196741
0.0207213911
0.0202277726
0.0197389563
0.0192550753
0.0187762578
0.018302627
0.0178343015
0.0173713952
0.0169140168
0.0164622705
0.0160162559
0.0155760675
0.0151417953
0.0147135246
0.014291336
0.0138753055
0.0134655042
0.0130619991
0.0126648523
0.0122741214
0.0118898595
0.0115121153
0.011140933
0.0107763526
0.0104184093
0.0100671344
0.00972255481
0.00938469301
0.00905356747
0.00872919243
0.00841157802
0.0081007303
0.00779665132
0.00749933914
0.00720878789
0.00692498783
0.00664792539
0.00637758323
0.00611394028
0.00585697182
0.00560664948
0.00536294137
0.00512581209
0.00489522278
0.00467113121
0.00445349183
0.0042422558
0.00403737111
0.00383878258
0.00364643195
0.00346025796
0.00328019639
0.00310618011
0.00293813921
0.00277600097
0.00261969001
0.00246912832
0.00232423533
0.00218492798
0.00205112078
0.0019227259
0.00179965321
0.00168181038
0.00156910294
0.00146143433
0.001358706
0.00126081745
0.00116766635
0.00107914855
0.000995158206
0.000915587807
0.000840328283
0.000769269059
0.000702298131
0.000639302138
0.000580166435
0.000524775166
0.000473011336
0.000424756882
0.00037989275
0.000338298962
0.00029985469
0.000264438332
0.000231927578
0.000202199487
0.000175130554
0.000150596786
0.00012847377
0.000108636746
9.0960675e-05
7.53203133e-05
6.15902785e-05
4.96451212e-05
3.93593938e-05
3.06077193e-05
2.32648598e-05
1.72057839e-05
1.23057349e-05
8.44029687e-06
5.48546172e-06
3.31769462e-06
1.8139994e-06
8.51983185e-07
3.09920458e-07
6.68164436e-08
2.46987503e-09

shape_id 2
num_samples 1000
0.5
0
0
247
-0.5
0
0
497
0.5
0
0
247

shape_id 3
num_samples 7
-0
0.182291667
-0
-0.130208333
-0.130208333
-1
-0

shape_id 4
num_samples 7
0
50
100
110
238
288
338

shape_id 5
num_samples 7
0
1
-1
0
0
2

shape_id 6
num_samples 7
-0
1
-0
-0
-0
-1
-0

shape_id 7
num_samples 7
0
1
0
0
0
-1
0


[SIGNATURE]
# This is the hash of the Pulseq file, calculated right before the [SIGNATURE] section was added
# It can be reproduced/verified with md5sum if the file trimmed to the position right above [SIGNATURE]
# The new line character preceding [SIGNATURE] BELONGS to the signature (and needs to be stripped away for recalculating/verification)
Type md5
Hash 6921c5c4e89d8664ef1f77c55dfc1c76
