# Pulseq sequence file
# Created by PyPulseq

[VERSION]
major 1
minor 2
revision 0

# Format of blocks:
#  #  D RF  GX  GY  GZ ADC
[BLOCKS]
  1  0  1   0   0   1  0
  2  0  0   2   3   4  0
  3  0  0   5   0   0  1
  4  0  0   0   6   0  0
  5  0  0   7   0   0  1
  6  0  0   0   6   0  0
  7  0  0   5   0   0  1
  8  0  0   0   6   0  0
  9  0  0   7   0   0  1
 10  0  0   0   6   0  0
 11  0  0   5   0   0  1
 12  0  0   0   6   0  0
 13  0  0   7   0   0  1
 14  0  0   0   6   0  0
 15  0  0   5   0   0  1
 16  0  0   0   6   0  0
 17  0  0   7   0   0  1
 18  0  0   0   6   0  0
 19  0  0   5   0   0  1
 20  0  0   0   6   0  0
 21  0  0   7   0   0  1
 22  0  0   0   6   0  0
 23  0  0   5   0   0  1
 24  0  0   0   6   0  0
 25  0  0   7   0   0  1
 26  0  0   0   6   0  0
 27  0  0   5   0   0  1
 28  0  0   0   6   0  0
 29  0  0   7   0   0  1
 30  0  0   0   6   0  0
 31  0  0   5   0   0  1
 32  0  0   0   6   0  0
 33  0  0   7   0   0  1
 34  0  0   0   6   0  0
 35  0  0   5   0   0  1
 36  0  0   0   6   0  0
 37  0  0   7   0   0  1
 38  0  0   0   6   0  0
 39  0  0   5   0   0  1
 40  0  0   0   6   0  0
 41  0  0   7   0   0  1
 42  0  0   0   6   0  0
 43  0  0   5   0   0  1
 44  0  0   0   6   0  0
 45  0  0   7   0   0  1
 46  0  0   0   6   0  0
 47  0  0   5   0   0  1
 48  0  0   0   6   0  0
 49  0  0   7   0   0  1
 50  0  0   0   6   0  0
 51  0  0   5   0   0  1
 52  0  0   0   6   0  0
 53  0  0   7   0   0  1
 54  0  0   0   6   0  0
 55  0  0   5   0   0  1
 56  0  0   0   6   0  0
 57  0  0   7   0   0  1
 58  0  0   0   6   0  0
 59  0  0   5   0   0  1
 60  0  0   0   6   0  0
 61  0  0   7   0   0  1
 62  0  0   0   6   0  0
 63  0  0   5   0   0  1
 64  0  0   0   6   0  0
 65  0  0   7   0   0  1
 66  0  0   0   6   0  0
 67  0  0   5   0   0  1
 68  0  0   0   6   0  0
 69  0  0   7   0   0  1
 70  0  0   0   6   0  0
 71  0  0   5   0   0  1
 72  0  0   0   6   0  0
 73  0  0   7   0   0  1
 74  0  0   0   6   0  0
 75  0  0   5   0   0  1
 76  0  0   0   6   0  0
 77  0  0   7   0   0  1
 78  0  0   0   6   0  0
 79  0  0   5   0   0  1
 80  0  0   0   6   0  0
 81  0  0   7   0   0  1
 82  0  0   0   6   0  0
 83  0  0   5   0   0  1
 84  0  0   0   6   0  0
 85  0  0   7   0   0  1
 86  0  0   0   6   0  0
 87  0  0   5   0   0  1
 88  0  0   0   6   0  0
 89  0  0   7   0   0  1
 90  0  0   0   6   0  0
 91  0  0   5   0   0  1
 92  0  0   0   6   0  0
 93  0  0   7   0   0  1
 94  0  0   0   6   0  0
 95  0  0   5   0   0  1
 96  0  0   0   6   0  0
 97  0  0   7   0   0  1
 98  0  0   0   6   0  0
 99  0  0   5   0   0  1
100  0  0   0   6   0  0
101  0  0   7   0   0  1
102  0  0   0   6   0  0
103  0  0   5   0   0  1
104  0  0   0   6   0  0
105  0  0   7   0   0  1
106  0  0   0   6   0  0
107  0  0   5   0   0  1
108  0  0   0   6   0  0
109  0  0   7   0   0  1
110  0  0   0   6   0  0
111  0  0   5   0   0  1
112  0  0   0   6   0  0
113  0  0   7   0   0  1
114  0  0   0   6   0  0
115  0  0   5   0   0  1
116  0  0   0   6   0  0
117  0  0   7   0   0  1
118  0  0   0   6   0  0
119  0  0   5   0   0  1
120  0  0   0   6   0  0
121  0  0   7   0   0  1
122  0  0   0   6   0  0
123  0  0   5   0   0  1
124  0  0   0   6   0  0
125  0  0   7   0   0  1
126  0  0   0   6   0  0
127  0  0   5   0   0  1
128  0  0   0   6   0  0
129  0  0   7   0   0  1
130  0  0   0   6   0  0

# Format of RF events:
# id amplitude mag_id phase_id delay freq phase
# ..        Hz   ....     ....    us   Hz   rad
[RF]
1      329.152 1 2 100 0 0

# Format of trapezoid gradients:
# id amplitude rise flat fall delay
# ..      Hz/m   us   us   us    us
[TRAP]
 1       444444  90 3000  90  10
 2      -365816  70  660  70   0
 3      -191388  40  720  40   0
 4 -1.18391e+06 220  360 220   0
 5  1.13636e+06 210  260 210   0
 6       151515  30    0  30   0
 7 -1.13636e+06 210  260 210   0

# Format of ADC events:
# id num dwell delay freq phase
# ..  ..    ns    us   Hz   rad
[ADC]
1 64 4000 214 0 0

# Sequence Shapes
[SHAPES]

shape_id 1
num_samples 3030
0
1e-08
1e-08
0
3e-08
4e-08
7e-08
9e-08
1.3e-07
1.6e-07
2e-07
2.4e-07
2.9e-07
3.5e-07
4e-07
4.7e-07
5.3e-07
6.1e-07
6.8e-07
7.6e-07
8.5e-07
9.4e-07
1.03e-06
1.13e-06
1.23e-06
1.34e-06
1.46e-06
1.57e-06
1.69e-06
1.82e-06
1.95e-06
2.09e-06
2.23e-06
2.37e-06
2.52e-06
2.67e-06
2.84e-06
3e-06
3.16e-06
3.34e-06
3.52e-06
3.7e-06
3.88e-06
4.08e-06
4.27e-06
4.47e-06
4.68e-06
4.89e-06
5.1e-06
5.33e-06
5.54e-06
5.78e-06
6e-06
6.25e-06
6.49e-06
6.73e-06
6.99e-06
7.24e-06
7.5e-06
7.77e-06
8.04e-06
8.32e-06
8.59e-06
8.88e-06
9.16e-06
9.46e-06
9.76e-06
1.006e-05
1.037e-05
1.068e-05
1.099e-05
1.131e-05
1.164e-05
1.197e-05
1.231e-05
1.264e-05
1.298e-05
1.334e-05
1.368e-05
1.404e-05
1.441e-05
1.476e-05
1.514e-05
1.552e-05
1.589e-05
1.627e-05
1.667e-05
1.705e-05
1.745e-05
1.786e-05
1.826e-05
1.866e-05
1.908e-05
1.95e-05
1.993e-05
2.034e-05
2.078e-05
2.122e-05
2.165e-05
2.21e-05
2.255e-05
2.3e-05
2.345e-05
2.392e-05
2.438e-05
2.485e-05
2.532e-05
2.58e-05
2.628e-05
2.676e-05
2.726e-05
2.774e-05
2.825e-05
2.874e-05
2.925e-05
2.976e-05
3.028e-05
3.079e-05
3.13e-05
3.184e-05
3.236e-05
3.29e-05
3.343e-05
3.397e-05
3.451e-05
3.506e-05
3.561e-05
3.617e-05
3.672e-05
3.729e-05
3.785e-05
3.842e-05
3.899e-05
3.957e-05
4.014e-05
4.073e-05
4.132e-05
4.191e-05
4.249e-05
4.31e-05
4.369e-05
4.43e-05
4.491e-05
4.551e-05
4.613e-05
4.674e-05
4.736e-05
4.799e-05
4.861e-05
4.923e-05
4.987e-05
5.051e-05
5.114e-05
5.178e-05
5.242e-05
5.307e-05
5.372e-05
5.437e-05
5.503e-05
5.568e-05
5.634e-05
5.701e-05
5.767e-05
5.834e-05
5.901e-05
5.968e-05
6.035e-05
6.104e-05
6.171e-05
6.24e-05
6.309e-05
6.377e-05
6.446e-05
6.515e-05
6.585e-05
6.654e-05
6.724e-05
6.795e-05
6.864e-05
6.935e-05
7.006e-05
7.076e-05
7.148e-05
7.219e-05
7.29e-05
7.362e-05
7.433e-05
7.506e-05
7.578e-05
7.65e-05
7.722e-05
7.795e-05
7.868e-05
7.941e-05
8.013e-05
8.087e-05
8.16e-05
8.234e-05
8.307e-05
8.381e-05
8.454e-05
8.529e-05
8.602e-05
8.677e-05
8.751e-05
8.825e-05
8.9e-05
8.974e-05
9.048e-05
9.123e-05
9.198e-05
9.273e-05
9.348e-05
9.422e-05
9.497e-05
9.573e-05
9.647e-05
9.723e-05
9.797e-05
9.873e-05
9.948e-05
0.00010023
0.00010098
0.00010174
0.00010248
0.00010324
0.00010399
0.00010475
0.00010549
0.00010625
0.000107
0.00010774
0.0001085
0.00010925
0.00011
0.00011075
0.0001115
0.00011225
0.00011299
0.00011374
0.00011449
0.00011523
0.00011597
0.00011672
0.00011747
0.0001182
0.00011894
0.00011969
0.00012042
0.00012116
0.00012189
0.00012263
0.00012336
0.00012409
0.00012482
0.00012555
0.00012628
0.000127
0.00012773
0.00012845
0.00012916
0.00012989
0.0001306
0.00013131
0.00013203
0.00013274
0.00013344
0.00013415
0.00013485
0.00013556
0.00013625
0.00013695
0.00013764
0.00013833
0.00013902
0.00013971
0.00014038
0.00014107
0.00014175
0.00014242
0.00014309
0.00014376
0.00014443
0.00014509
0.00014574
0.0001464
0.00014706
0.0001477
0.00014835
0.000149
0.00014963
0.00015026
0.0001509
0.00015152
0.00015215
0.00015277
0.00015339
0.00015399
0.00015461
0.00015521
0.00015581
0.00015641
0.00015699
0.00015759
0.00015817
0.00015874
0.00015932
0.00015989
0.00016046
0.00016101
0.00016158
0.00016212
0.00016266
0.00016321
0.00016375
0.00016427
0.00016481
0.00016532
0.00016584
0.00016635
0.00016685
0.00016736
0.00016784
0.00016834
0.00016882
0.0001693
0.00016977
0.00017024
0.00017069
0.00017115
0.0001716
0.00017205
0.00017248
0.00017291
0.00017333
0.00017375
0.00017417
0.00017457
0.00017497
0.00017536
0.00017575
0.00017613
0.0001765
0.00017687
0.00017722
0.00017758
0.00017793
0.00017826
0.0001786
0.00017892
0.00017924
0.00017955
0.00017985
0.00018015
0.00018044
0.00018072
0.00018099
0.00018126
0.00018152
0.00018177
0.00018202
0.00018225
0.00018247
0.0001827
0.00018291
0.00018311
0.00018331
0.0001835
0.00018367
0.00018385
0.00018401
0.00018417
0.00018431
0.00018445
0.00018458
0.00018471
0.00018481
0.00018492
0.00018501
0.0001851
0.00018517
0.00018524
0.00018531
0.00018535
0.00018539
0.00018543
0.00018545
0.00018546
0.00018547
0.00018546
0.00018545
0.00018542
0.00018539
0.00018535
0.00018529
0.00018523
0.00018516
0.00018508
0.00018498
0.00018489
0.00018477
0.00018465
0.00018451
0.00018438
0.00018422
0.00018406
0.00018389
0.00018371
0.00018351
0.00018331
0.00018309
0.00018287
0.00018263
0.00018239
0.00018213
0.00018186
0.00018158
0.00018129
0.000181
0.00018068
0.00018036
0.00018002
0.00017968
0.00017933
0.00017896
0.00017858
0.00017819
0.00017779
0.00017738
0.00017695
0.00017652
0.00017607
0.00017562
0.00017514
0.00017466
0.00017417
0.00017366
0.00017315
0.00017262
0.00017207
0.00017153
0.00017095
0.00017038
0.0001698
0.00016919
0.00016857
0.00016796
0.00016731
0.00016666
0.000166
0.00016533
0.00016463
0.00016394
0.00016323
0.0001625
0.00016176
0.00016101
0.00016024
0.00015948
0.00015868
0.00015788
0.00015707
0.00015623
0.0001554
0.00015455
0.00015368
0.00015279
0.00015191
0.000151
0.00015008
0.00014915
0.00014821
0.00014724
0.00014627
0.00014529
0.00014429
0.00014328
0.00014225
0.00014121
0.00014016
0.00013909
0.00013801
0.00013692
0.00013581
0.00013469
0.00013356
0.0001324
0.00013125
0.00013006
0.00012888
0.00012768
0.00012645
0.00012523
0.00012398
0.00012272
0.00012144
0.00012016
0.00011885
0.00011754
0.00011621
0.00011486
0.00011351
0.00011213
0.00011075
0.00010934
0.00010793
0.0001065
0.00010505
0.00010359
0.00010213
0.00010063
9.913e-05
9.762e-05
9.608e-05
9.454e-05
9.298e-05
9.14e-05
8.981e-05
8.821e-05
8.659e-05
8.496e-05
8.331e-05
8.165e-05
7.997e-05
7.828e-05
7.657e-05
7.485e-05
7.312e-05
7.136e-05
6.96e-05
6.782e-05
6.602e-05
6.422e-05
6.238e-05
6.055e-05
5.87e-05
5.682e-05
5.494e-05
5.304e-05
5.112e-05
4.92e-05
4.725e-05
4.53e-05
4.331e-05
4.133e-05
3.933e-05
3.731e-05
3.527e-05
3.323e-05
3.116e-05
2.908e-05
2.698e-05
2.488e-05
2.276e-05
2.061e-05
1.846e-05
1.629e-05
1.411e-05
1.191e-05
9.69e-06
7.47e-06
5.22e-06
2.96e-06
6.9e-07
-1.61e-06
-3.91e-06
-6.22e-06
-8.56e-06
-1.092e-05
-1.327e-05
-1.566e-05
-1.805e-05
-2.046e-05
-2.289e-05
-2.532e-05
-2.779e-05
-3.025e-05
-3.273e-05
-3.524e-05
-3.775e-05
-4.028e-05
-4.283e-05
-4.538e-05
-4.796e-05
-5.055e-05
-5.316e-05
-5.577e-05
-5.841e-05
-6.106e-05
-6.373e-05
-6.64e-05
-6.91e-05
-7.18e-05
-7.453e-05
-7.727e-05
-8.002e-05
-8.279e-05
-8.558e-05
-8.837e-05
-9.118e-05
-9.401e-05
-9.686e-05
-9.971e-05
-0.00010258
-0.00010547
-0.00010837
-0.00011128
-0.00011421
-0.00011716
-0.00012012
-0.00012309
-0.00012608
-0.00012908
-0.0001321
-0.00013513
-0.00013818
-0.00014123
-0.00014432
-0.0001474
-0.0001505
-0.00015362
-0.00015676
-0.0001599
-0.00016306
-0.00016623
-0.00016942
-0.00017263
-0.00017584
-0.00017908
-0.00018232
-0.00018557
-0.00018886
-0.00019213
-0.00019544
-0.00019875
-0.00020209
-0.00020542
-0.00020878
-0.00021215
-0.00021553
-0.00021893
-0.00022234
-0.00022576
-0.0002292
-0.00023266
-0.00023612
-0.00023959
-0.00024309
-0.00024659
-0.00025011
-0.00025364
-0.00025719
-0.00026074
-0.00026431
-0.0002679
-0.0002715
-0.0002751
-0.00027873
-0.00028236
-0.00028601
-0.00028968
-0.00029334
-0.00029704
-0.00030073
-0.00030444
-0.00030817
-0.00031191
-0.00031566
-0.00031942
-0.00032319
-0.00032698
-0.00033078
-0.00033459
-0.00033841
-0.00034225
-0.0003461
-0.00034995
-0.00035383
-0.00035771
-0.00036161
-0.00036551
-0.00036943
-0.00037336
-0.00037731
-0.00038125
-0.00038522
-0.0003892
-0.00039319
-0.00039718
-0.00040119
-0.00040522
-0.00040925
-0.00041329
-0.00041735
-0.00042141
-0.00042549
-0.00042957
-0.00043368
-0.00043778
-0.0004419
-0.00044603
-0.00045017
-0.00045432
-0.00045848
-0.00046266
-0.00046683
-0.00047103
-0.00047523
-0.00047944
-0.00048366
-0.00048789
-0.00049213
-0.00049639
-0.00050065
-0.00050491
-0.0005092
-0.00051348
-0.00051779
-0.00052209
-0.0005264
-0.00053074
-0.00053507
-0.00053941
-0.00054377
-0.00054813
-0.0005525
-0.00055688
-0.00056126
-0.00056567
-0.00057006
-0.00057449
-0.0005789
-0.00058333
-0.00058777
-0.00059222
-0.00059667
-0.00060114
-0.0006056
-0.00061008
-0.00061457
-0.00061906
-0.00062355
-0.00062807
-0.00063258
-0.0006371
-0.00064164
-0.00064616
-0.00065072
-0.00065526
-0.00065982
-0.00066438
0.00066895
0.00067353
0.00067812
0.0006827
0.0006873
0.0006919
0.00069651
0.00070112
0.00070574
0.00071037
0.000715
0.00071964
0.00072428
0.00072893
0.00073359
0.00073824
0.0007429
0.00074758
0.00075225
0.00075693
0.00076161
0.00076631
0.00077099
0.00077569
0.0007804
0.0007851
0.00078982
0.00079452
0.00079925
0.00080397
0.0008087
0.00081343
0.00081816
0.0008229
0.00082764
0.00083238
0.00083714
0.00084188
0.00084664
0.0008514
0.00085615
0.00086092
0.00086569
0.00087045
0.00087522
0.00087999
0.00088477
0.00088955
0.00089433
0.0008991
0.00090389
0.00090868
0.00091346
0.00091825
0.00092304
0.00092783
0.00093262
0.00093741
0.00094221
0.000947
0.0009518
0.00095659
0.00096139
0.00096619
0.00097098
0.00097579
0.00098058
0.00098538
0.00099017
0.00099498
0.00099977
0.00100457
0.00100937
0.00101416
0.00101896
0.00102375
0.00102855
0.00103334
0.00103813
0.00104292
0.00104771
0.0010525
0.00105728
0.00106207
0.00106684
0.00107163
0.00107641
0.00108118
0.00108596
0.00109073
0.00109549
0.00110027
0.00110502
0.00110979
0.00111454
0.0011193
0.00112406
0.0011288
0.00113354
0.00113829
0.00114302
0.00114776
0.00115249
0.00115721
0.00116194
0.00116665
0.00117137
0.00117608
0.00118078
0.00118548
0.00119018
0.00119487
0.00119955
0.00120423
0.00120891
0.00121358
0.00121824
0.00122291
0.00122755
0.0012322
0.00123685
0.00124148
0.00124611
0.00125073
0.00125534
0.00125996
0.00126456
0.00126916
0.00127375
0.00127833
0.00128291
0.00128747
0.00129204
0.00129659
0.00130114
0.00130567
0.00131021
0.00131473
0.00131925
0.00132375
0.00132825
0.00133274
0.00133723
0.00134169
0.00134617
0.00135061
0.00135507
0.0013595
0.00136393
0.00136835
0.00137276
0.00137716
0.00138155
0.00138594
0.0013903
0.00139467
0.00139901
0.00140336
0.00140769
0.00141201
0.00141631
0.00142062
0.00142491
0.00142918
0.00143345
0.0014377
0.00144195
0.00144618
0.0014504
0.00145461
0.00145881
0.00146299
0.00146717
0.00147132
0.00147548
0.00147962
0.00148374
0.00148785
0.00149196
0.00149604
0.00150011
0.00150417
0.00150823
0.00151226
0.00151627
0.00152029
0.00152428
0.00152827
0.00153223
0.00153618
0.00154012
0.00154405
0.00154796
0.00155185
0.00155574
0.0015596
0.00156346
0.0015673
0.00157111
0.00157493
0.00157872
0.0015825
0.00158626
0.00159
0.00159374
0.00159746
0.00160115
0.00160484
0.0016085
0.00161216
0.00161579
0.00161942
0.00162301
0.0016266
0.00163017
0.00163373
0.00163726
0.00164078
0.00164428
0.00164777
0.00165123
0.00165468
0.00165812
0.00166153
0.00166493
0.00166831
0.00167167
0.00167501
0.00167834
0.00168164
0.00168494
0.0016882
0.00169146
0.00169468
0.00169791
0.00170109
0.00170428
0.00170743
0.00171057
0.00171368
0.00171679
0.00171987
0.00172293
0.00172596
0.00172899
0.00173199
0.00173497
0.00173793
0.00174087
0.00174379
0.0017467
0.00174957
0.00175243
0.00175526
0.00175809
0.00176088
0.00176366
0.00176641
0.00176915
0.00177185
0.00177455
0.00177722
0.00177987
0.00178249
0.00178509
0.00178768
0.00179024
0.00179278
0.00179529
0.00179779
0.00180026
0.00180271
0.00180514
0.00180755
0.00180992
0.00181229
0.00181462
0.00181693
0.00181923
0.00182149
0.00182374
0.00182596
0.00182816
0.00183033
0.00183248
0.00183461
0.00183671
0.0018388
0.00184085
0.00184288
0.00184489
0.00184688
0.00184883
0.00185077
0.00185268
0.00185457
0.00185644
0.00185826
0.00186009
0.00186187
0.00186363
0.00186538
0.00186709
0.00186878
0.00187044
0.00187208
0.00187369
0.00187528
0.00187685
0.00187838
0.00187989
0.00188138
0.00188284
0.00188427
0.00188568
0.00188707
0.00188842
0.00188976
0.00189105
0.00189234
0.00189359
0.00189481
0.00189602
0.00189719
0.00189833
0.00189946
0.00190054
0.00190162
0.00190265
0.00190367
0.00190465
0.00190562
0.00190654
0.00190745
0.00190833
0.00190918
0.00191
0.0019108
0.00191157
0.00191231
0.00191302
0.00191371
0.00191437
0.001915
0.0019156
0.00191618
0.00191672
0.00191725
0.00191774
0.0019182
0.00191864
0.00191905
0.00191942
0.00191978
0.0019201
0.0019204
0.00192066
0.00192091
0.00192111
0.00192129
0.00192145
0.00192157
0.00192167
0.00192174
0.00192177
0.00192179
0.00192176
0.00192172
0.00192164
0.00192154
0.0019214
0.00192124
0.00192105
0.00192083
0.00192058
0.00192029
0.00191999
0.00191965
0.00191929
0.00191889
0.00191846
0.00191801
0.00191752
0.00191702
0.00191646
0.0019159
0.0019153
0.00191466
0.00191401
0.00191331
0.0019126
0.00191184
0.00191107
0.00191026
0.00190942
0.00190855
0.00190765
0.00190673
0.00190577
0.00190479
0.00190377
0.00190272
0.00190165
0.00190054
0.0018994
0.00189824
0.00189704
0.00189582
0.00189456
0.00189328
0.00189197
0.00189061
0.00188925
0.00188783
0.00188641
0.00188493
0.00188345
0.00188191
0.00188037
0.00187877
0.00187717
0.00187551
0.00187385
0.00187213
0.0018704
0.00186864
0.00186684
0.00186502
0.00186316
0.00186127
0.00185936
0.00185742
0.00185543
0.00185344
0.00185139
0.00184933
0.00184724
0.00184511
0.00184295
0.00184077
0.00183855
0.0018363
0.00183403
0.00183173
0.00182938
0.00182703
0.00182462
0.0018222
0.00181975
0.00181726
0.00181474
0.0018122
0.00180962
0.00180702
0.00180438
0.00180172
0.00179903
0.0017963
0.00179354
0.00179077
0.00178794
0.00178511
0.00178223
0.00177933
0.0017764
0.00177344
0.00177044
0.00176743
0.00176437
0.0017613
0.00175818
0.00175505
0.00175188
0.00174868
0.00174545
0.0017422
0.00173891
0.0017356
0.00173226
0.00172888
0.00172548
0.00172205
0.00171858
0.0017151
0.00171158
0.00170803
0.00170446
0.00170085
0.00169722
0.00169355
0.00168986
0.00168614
0.0016824
0.00167861
0.00167481
0.00167098
0.00166711
0.00166322
0.0016593
0.00165535
0.00165138
0.00164737
0.00164334
0.00163927
0.00163519
0.00163107
0.00162692
0.00162276
0.00161854
0.00161433
0.00161006
0.00160578
0.00160147
0.00159712
0.00159276
0.00158837
0.00158394
0.0015795
0.00157501
0.00157052
0.00156598
0.00156142
0.00155684
0.00155222
0.00154759
0.00154291
0.00153823
0.00153351
0.00152875
0.00152399
0.00151919
0.00151436
0.0015095
0.00150463
0.00149973
0.00149479
0.00148983
0.00148485
0.00147985
0.0014748
0.00146975
0.00146466
0.00145954
0.00145441
0.00144925
0.00144405
0.00143884
0.0014336
0.00142834
0.00142305
0.00141773
0.00141239
0.00140702
0.00140164
0.00139622
0.00139079
0.00138532
0.00137983
0.00137432
0.00136878
0.00136322
0.00135764
0.00135203
0.00134639
0.00134074
0.00133506
0.00132935
0.00132363
0.00131787
0.0013121
0.00130631
0.00130048
0.00129463
0.00128877
0.00128288
0.00127697
0.00127103
0.00126507
0.00125909
0.00125309
0.00124707
0.00124101
0.00123494
0.00122886
0.00122274
0.0012166
0.00121044
0.00120427
0.00119806
0.00119184
0.0011856
0.00117934
0.00117305
0.00116674
0.00116041
0.00115406
0.0011477
0.0011413
0.0011349
0.00112846
0.00112201
0.00111554
0.00110905
0.00110254
0.00109601
0.00108946
0.00108288
0.0010763
0.00106969
0.00106305
0.00105641
0.00104975
0.00104305
0.00103636
0.00102963
0.00102288
0.00101613
0.00100935
0.00100255
0.00099574
0.0009889
0.00098205
0.00097519
0.0009683
0.00096139
0.00095447
0.00094753
0.00094058
0.00093361
0.00092661
0.00091961
0.00091259
0.00090554
0.00089849
0.00089142
0.00088433
0.00087722
0.0008701
0.00086297
0.00085581
0.00084865
0.00084146
0.00083427
0.00082705
0.00081982
0.00081258
0.00080532
0.00079805
0.00079076
0.00078346
0.00077614
0.00076881
0.00076146
0.00075411
0.00074674
0.00073935
0.00073195
0.00072454
0.00071711
0.00070967
0.00070223
0.00069475
0.00068728
0.00067979
0.00067229
0.00066477
0.00065725
0.00064971
0.00064216
0.00063459
0.00062702
0.00061944
0.00061183
0.00060423
0.00059661
0.00058899
0.00058134
0.00057368
0.00056603
0.00055835
0.00055068
0.00054298
0.00053527
0.00052757
0.00051984
0.00051211
0.00050437
0.00049662
0.00048886
0.00048109
0.00047331
0.00046553
0.00045773
0.00044993
0.00044212
0.0004343
0.00042648
0.00041864
0.00041079
0.00040295
0.00039509
0.00038722
0.00037935
0.00037147
0.00036359
0.00035569
0.0003478
0.00033989
0.00033197
0.00032406
0.00031614
0.0003082
0.00030028
0.00029233
0.00028438
0.00027643
0.00026848
0.00026051
0.00025255
0.00024458
0.0002366
0.00022863
0.00022064
0.00021265
0.00020466
0.00019666
0.00018866
0.00018067
0.00017265
0.00016465
0.00015663
0.00014862
0.0001406
0.00013258
0.00012456
0.00011653
0.00010851
0.00010047
9.245e-05
8.441e-05
7.637e-05
6.834e-05
6.031e-05
5.226e-05
4.423e-05
3.619e-05
2.814e-05
2.011e-05
1.206e-05
4.02e-06
-4.02e-06
-1.206e-05
-2.011e-05
-2.814e-05
-3.619e-05
-4.423e-05
-5.226e-05
-6.031e-05
-6.834e-05
-7.637e-05
-8.441e-05
-9.245e-05
-0.00010047
-0.00010851
-0.00011653
-0.00012456
-0.00013258
-0.0001406
-0.00014862
-0.00015663
-0.00016465
-0.00017265
-0.00018067
-0.00018866
-0.00019666
-0.00020466
-0.00021265
-0.00022064
-0.00022863
-0.0002366
-0.00024458
-0.00025255
-0.00026051
-0.00026848
-0.00027643
-0.00028438
-0.00029233
-0.00030028
-0.0003082
-0.00031614
-0.00032406
-0.00033197
-0.00033989
-0.0003478
-0.00035569
-0.00036359
-0.00037147
-0.00037935
-0.00038722
-0.00039509
-0.00040295
-0.00041079
-0.00041864
-0.00042648
-0.0004343
-0.00044212
-0.00044993
-0.00045773
-0.00046553
-0.00047331
-0.00048109
-0.00048886
-0.00049662
-0.00050437
-0.00051211
-0.00051984
-0.00052757
-0.00053527
-0.00054298
-0.00055068
-0.00055835
-0.00056603
-0.00057368
-0.00058134
-0.00058899
-0.00059661
-0.00060423
-0.00061183
-0.00061944
-0.00062702
-0.00063459
-0.00064216
-0.00064971
-0.00065725
-0.00066477
-0.00067229
-0.00067979
-0.00068728
-0.00069475
-0.00070223
-0.00070967
-0.00071711
-0.00072454
-0.00073195
-0.00073935
-0.00074674
-0.00075411
-0.00076146
-0.00076881
-0.00077614
-0.00078346
-0.00079076
-0.00079805
-0.00080532
-0.00081258
-0.00081982
-0.00082705
-0.00083427
-0.00084146
-0.00084865
-0.00085581
-0.00086297
-0.0008701
-0.00087722
-0.00088433
-0.00089142
-0.00089849
-0.00090554
-0.00091259
-0.00091961
-0.00092661
-0.00093361
-0.00094058
-0.00094753
-0.00095447
-0.00096139
-0.0009683
-0.00097519
-0.00098205
-0.0009889
-0.00099574
-0.00100255
-0.00100935
-0.00101613
-0.00102288
-0.00102963
-0.00103636
-0.00104305
-0.00104975
-0.00105641
-0.00106305
-0.00106969
-0.0010763
-0.00108288
-0.00108946
-0.00109601
-0.00110254
-0.00110905
-0.00111554
-0.00112201
-0.00112846
-0.0011349
-0.0011413
-0.0011477
-0.00115406
-0.00116041
-0.00116674
-0.00117305
-0.00117934
-0.0011856
-0.00119184
-0.00119806
-0.00120427
-0.00121044
-0.0012166
-0.00122274
-0.00122886
-0.00123494
-0.00124101
-0.00124707
-0.00125309
-0.00125909
-0.00126507
-0.00127103
-0.00127697
-0.00128288
-0.00128877
-0.00129463
-0.00130048
-0.00130631
-0.0013121
-0.00131787
-0.00132363
-0.00132935
-0.00133506
-0.00134074
-0.00134639
-0.00135203
-0.00135764
-0.00136322
-0.00136878
-0.00137432
-0.00137983
-0.00138532
-0.00139079
-0.00139622
-0.00140164
-0.00140702
-0.00141239
-0.00141773
-0.00142305
-0.00142834
-0.0014336
-0.00143884
-0.00144405
-0.00144925
-0.00145441
-0.00145954
-0.00146466
-0.00146975
-0.0014748
-0.00147985
-0.00148485
-0.00148983
-0.00149479
-0.00149973
-0.00150463
-0.0015095
-0.00151436
-0.00151919
-0.00152399
-0.00152875
-0.00153351
-0.00153823
-0.00154291
-0.00154759
-0.00155222
-0.00155684
-0.00156142
-0.00156598
-0.00157052
-0.00157501
-0.0015795
-0.00158394
-0.00158837
-0.00159276
-0.00159712
-0.00160147
-0.00160578
-0.00161006
-0.00161433
-0.00161854
-0.00162276
-0.00162692
-0.00163107
-0.00163519
-0.00163927
-0.00164334
-0.00164737
-0.00165138
-0.00165535
-0.0016593
-0.00166322
-0.00166711
-0.00167098
-0.00167481
-0.00167861
-0.0016824
-0.00168614
-0.00168986
-0.00169355
-0.00169722
-0.00170085
-0.00170446
-0.00170803
-0.00171158
-0.0017151
-0.00171858
-0.00172205
-0.00172548
-0.00172888
-0.00173226
-0.0017356
-0.00173891
-0.0017422
-0.00174545
-0.00174868
-0.00175188
-0.00175505
-0.00175818
-0.0017613
-0.00176437
-0.00176743
-0.00177044
-0.00177344
-0.0017764
-0.00177933
-0.00178223
-0.00178511
-0.00178794
-0.00179077
-0.00179354
-0.0017963
-0.00179903
-0.00180172
-0.00180438
-0.00180702
-0.00180962
-0.0018122
-0.00181474
-0.00181726
-0.00181975
-0.0018222
-0.00182462
-0.00182703
-0.00182938
-0.00183173
-0.00183403
-0.0018363
-0.00183855
-0.00184077
-0.00184295
-0.00184511
-0.00184724
-0.00184933
-0.00185139
-0.00185344
-0.00185543
-0.00185742
-0.00185936
-0.00186127
-0.00186316
-0.00186502
-0.00186684
-0.00186864
-0.0018704
-0.00187213
-0.00187385
-0.00187551
-0.00187717
-0.00187877
-0.00188037
-0.00188191
-0.00188345
-0.00188493
-0.00188641
-0.00188783
-0.00188925
-0.00189061
-0.00189197
-0.00189328
-0.00189456
-0.00189582
-0.00189704
-0.00189824
-0.0018994
-0.00190054
-0.00190165
-0.00190272
-0.00190377
-0.00190479
-0.00190577
-0.00190673
-0.00190765
-0.00190855
-0.00190942
-0.00191026
-0.00191107
-0.00191184
-0.0019126
-0.00191331
-0.00191401
-0.00191466
-0.0019153
-0.0019159
-0.00191646
-0.00191702
-0.00191752
-0.00191801
-0.00191846
-0.00191889
-0.00191929
-0.00191965
-0.00191999
-0.00192029
-0.00192058
-0.00192083
-0.00192105
-0.00192124
-0.0019214
-0.00192154
-0.00192164
-0.00192172
-0.00192176
-0.00192179
-0.00192177
-0.00192174
-0.00192167
-0.00192157
-0.00192145
-0.00192129
-0.00192111
-0.00192091
-0.00192066
-0.0019204
-0.0019201
-0.00191978
-0.00191942
-0.00191905
-0.00191864
-0.0019182
-0.00191774
-0.00191725
-0.00191672
-0.00191618
-0.0019156
-0.001915
-0.00191437
-0.00191371
-0.00191302
-0.00191231
-0.00191157
-0.0019108
-0.00191
-0.00190918
-0.00190833
-0.00190745
-0.00190654
-0.00190562
-0.00190465
-0.00190367
-0.00190265
-0.00190162
-0.00190054
-0.00189946
-0.00189833
-0.00189719
-0.00189602
-0.00189481
-0.00189359
-0.00189234
-0.00189105
-0.00188976
-0.00188842
-0.00188707
-0.00188568
-0.00188427
-0.00188284
-0.00188138
-0.00187989
-0.00187838
-0.00187685
-0.00187528
-0.00187369
-0.00187208
-0.00187044
-0.00186878
-0.00186709
-0.00186538
-0.00186363
-0.00186187
-0.00186009
-0.00185826
-0.00185644
-0.00185457
-0.00185268
-0.00185077
-0.00184883
-0.00184688
-0.00184489
-0.00184288
-0.00184085
-0.0018388
-0.00183671
-0.00183461
-0.00183248
-0.00183033
-0.00182816
-0.00182596
-0.00182374
-0.00182149
-0.00181923
-0.00181693
-0.00181462
-0.00181229
-0.00180992
-0.00180755
-0.00180514
-0.00180271
-0.00180026
-0.00179779
-0.00179529
-0.00179278
-0.00179024
-0.00178768
-0.00178509
-0.00178249
-0.00177987
-0.00177722
-0.00177455
-0.00177185
-0.00176915
-0.00176641
-0.00176366
-0.00176088
-0.00175809
-0.00175526
-0.00175243
-0.00174957
-0.0017467
-0.00174379
-0.00174087
-0.00173793
-0.00173497
-0.00173199
-0.00172899
-0.00172596
-0.00172293
-0.00171987
-0.00171679
-0.00171368
-0.00171057
-0.00170743
-0.00170428
-0.00170109
-0.00169791
-0.00169468
-0.00169146
-0.0016882
-0.00168494
-0.00168164
-0.00167834
-0.00167501
-0.00167167
-0.00166831
-0.00166493
-0.00166153
-0.00165812
-0.00165468
-0.00165123
-0.00164777
-0.00164428
-0.00164078
-0.00163726
-0.00163373
-0.00163017
-0.0016266
-0.00162301
-0.00161942
-0.00161579
-0.00161216
-0.0016085
-0.00160484
-0.00160115
-0.00159746
-0.00159374
-0.00159
-0.00158626
-0.0015825
-0.00157872
-0.00157493
-0.00157111
-0.0015673
-0.00156346
-0.0015596
-0.00155574
-0.00155185
-0.00154796
-0.00154405
-0.00154012
-0.00153618
-0.00153223
-0.00152827
-0.00152428
-0.00152029
-0.00151627
-0.00151226
-0.00150823
-0.00150417
-0.00150011
-0.00149604
-0.00149196
-0.00148785
-0.00148374
-0.00147962
-0.00147548
-0.00147132
-0.00146717
-0.00146299
-0.00145881
-0.00145461
-0.0014504
-0.00144618
-0.00144195
-0.0014377
-0.00143345
-0.00142918
-0.00142491
-0.00142062
-0.00141631
-0.00141201
-0.00140769
-0.00140336
-0.00139901
-0.00139467
-0.0013903
-0.00138594
-0.00138155
-0.00137716
-0.00137276
-0.00136835
-0.00136393
-0.0013595
-0.00135507
-0.00135061
-0.00134617
-0.00134169
-0.00133723
-0.00133274
-0.00132825
-0.00132375
-0.00131925
-0.00131473
-0.00131021
-0.00130567
-0.00130114
-0.00129659
-0.00129204
-0.00128747
-0.00128291
-0.00127833
-0.00127375
-0.00126916
-0.00126456
-0.00125996
-0.00125534
-0.00125073
-0.00124611
-0.00124148
-0.00123685
-0.0012322
-0.00122755
-0.00122291
-0.00121824
-0.00121358
