# Pulseq sequence file
# Created by PyPulseq

[VERSION]
major 1
minor 2
revision 0

# Format of blocks:
#  #  D RF  GX  GY  GZ ADC
[BLOCKS]
   1  0  1   0   0   1  0
   2  0  0   2   3   4  0
   3  1  0   0   0   0  0
   4  0  0   5   0   0  1
   5  2  0   6   7   8  0
   6  0  2   0   0   1  0
   7  0  0   2   3   4  0
   8  3  0   0   0   0  0
   9  0  0   5   0   0  2
  10  4  0   6   7   8  0
  11  0  3   0   0   1  0
  12  0  0   2   9   4  0
  13  1  0   0   0   0  0
  14  0  0   5   0   0  3
  15  2  0   6  10   8  0
  16  0  4   0   0   1  0
  17  0  0   2   9   4  0
  18  3  0   0   0   0  0
  19  0  0   5   0   0  4
  20  4  0   6  10   8  0
  21  0  5   0   0   1  0
  22  0  0   2  11   4  0
  23  1  0   0   0   0  0
  24  0  0   5   0   0  5
  25  2  0   6  12   8  0
  26  0  6   0   0   1  0
  27  0  0   2  11   4  0
  28  3  0   0   0   0  0
  29  0  0   5   0   0  6
  30  4  0   6  12   8  0
  31  0  7   0   0   1  0
  32  0  0   2  13   4  0
  33  1  0   0   0   0  0
  34  0  0   5   0   0  7
  35  2  0   6  14   8  0
  36  0  8   0   0   1  0
  37  0  0   2  13   4  0
  38  3  0   0   0   0  0
  39  0  0   5   0   0  8
  40  4  0   6  14   8  0
  41  0  9   0   0   1  0
  42  0  0   2  15   4  0
  43  1  0   0   0   0  0
  44  0  0   5   0   0  9
  45  2  0   6  16   8  0
  46  0 10   0   0   1  0
  47  0  0   2  15   4  0
  48  3  0   0   0   0  0
  49  0  0   5   0   0 10
  50  4  0   6  16   8  0
  51  0  6   0   0   1  0
  52  0  0   2  17   4  0
  53  1  0   0   0   0  0
  54  0  0   5   0   0  6
  55  2  0   6  18   8  0
  56  0 11   0   0   1  0
  57  0  0   2  17   4  0
  58  3  0   0   0   0  0
  59  0  0   5   0   0 11
  60  4  0   6  18   8  0
  61  0 12   0   0   1  0
  62  0  0   2  19   4  0
  63  1  0   0   0   0  0
  64  0  0   5   0   0 12
  65  2  0   6  20   8  0
  66  0 13   0   0   1  0
  67  0  0   2  19   4  0
  68  3  0   0   0   0  0
  69  0  0   5   0   0 13
  70  4  0   6  20   8  0
  71  0 14   0   0   1  0
  72  0  0   2  21   4  0
  73  1  0   0   0   0  0
  74  0  0   5   0   0 14
  75  2  0   6  22   8  0
  76  0  1   0   0   1  0
  77  0  0   2  21   4  0
  78  3  0   0   0   0  0
  79  0  0   5   0   0  1
  80  4  0   6  22   8  0
  81  0 15   0   0   1  0
  82  0  0   2  23   4  0
  83  1  0   0   0   0  0
  84  0  0   5   0   0 15
  85  2  0   6  24   8  0
  86  0 16   0   0   1  0
  87  0  0   2  23   4  0
  88  3  0   0   0   0  0
  89  0  0   5   0   0 16
  90  4  0   6  24   8  0
  91  0 13   0   0   1  0
  92  0  0   2  25   4  0
  93  1  0   0   0   0  0
  94  0  0   5   0   0 13
  95  2  0   6  26   8  0
  96  0 17   0   0   1  0
  97  0  0   2  25   4  0
  98  3  0   0   0   0  0
  99  0  0   5   0   0 17
 100  4  0   6  26   8  0
 101  0  5   0   0   1  0
 102  0  0   2  27   4  0
 103  1  0   0   0   0  0
 104  0  0   5   0   0  5
 105  2  0   6  28   8  0
 106  0 18   0   0   1  0
 107  0  0   2  27   4  0
 108  3  0   0   0   0  0
 109  0  0   5   0   0 18
 110  4  0   6  28   8  0
 111  0 19   0   0   1  0
 112  0  0   2  29   4  0
 113  1  0   0   0   0  0
 114  0  0   5   0   0 19
 115  2  0   6  30   8  0
 116  0  9   0   0   1  0
 117  0  0   2  29   4  0
 118  3  0   0   0   0  0
 119  0  0   5   0   0  9
 120  4  0   6  30   8  0
 121  0 20   0   0   1  0
 122  0  0   2  31   4  0
 123  1  0   0   0   0  0
 124  0  0   5   0   0 20
 125  2  0   6  32   8  0
 126  0 10   0   0   1  0
 127  0  0   2  31   4  0
 128  3  0   0   0   0  0
 129  0  0   5   0   0 10
 130  4  0   6  32   8  0
 131  0 18   0   0   1  0
 132  0  0   2  33   4  0
 133  1  0   0   0   0  0
 134  0  0   5   0   0 18
 135  2  0   6  34   8  0
 136  0 21   0   0   1  0
 137  0  0   2  33   4  0
 138  3  0   0   0   0  0
 139  0  0   5   0   0 21
 140  4  0   6  34   8  0
 141  0  4   0   0   1  0
 142  0  0   2  35   4  0
 143  1  0   0   0   0  0
 144  0  0   5   0   0  4
 145  2  0   6  36   8  0
 146  0 22   0   0   1  0
 147  0  0   2  35   4  0
 148  3  0   0   0   0  0
 149  0  0   5   0   0 22
 150  4  0   6  36   8  0
 151  0 14   0   0   1  0
 152  0  0   2  37   4  0
 153  1  0   0   0   0  0
 154  0  0   5   0   0 14
 155  2  0   6  38   8  0
 156  0 15   0   0   1  0
 157  0  0   2  37   4  0
 158  3  0   0   0   0  0
 159  0  0   5   0   0 15
 160  4  0   6  38   8  0
 161  0 23   0   0   1  0
 162  0  0   2  39   4  0
 163  1  0   0   0   0  0
 164  0  0   5   0   0 23
 165  2  0   6  40   8  0
 166  0  2   0   0   1  0
 167  0  0   2  39   4  0
 168  3  0   0   0   0  0
 169  0  0   5   0   0  2
 170  4  0   6  40   8  0
 171  0 22   0   0   1  0
 172  0  0   2  41   4  0
 173  1  0   0   0   0  0
 174  0  0   5   0   0 22
 175  2  0   6  42   8  0
 176  0 17   0   0   1  0
 177  0  0   2  41   4  0
 178  3  0   0   0   0  0
 179  0  0   5   0   0 17
 180  4  0   6  42   8  0
 181  0 11   0   0   1  0
 182  0  0   2  43   4  0
 183  1  0   0   0   0  0
 184  0  0   5   0   0 11
 185  2  0   6  44   8  0
 186  0 24   0   0   1  0
 187  0  0   2  43   4  0
 188  3  0   0   0   0  0
 189  0  0   5   0   0 24
 190  4  0   6  44   8  0
 191  0  7   0   0   1  0
 192  0  0   2  45   4  0
 193  1  0   0   0   0  0
 194  0  0   5   0   0  7
 195  2  0   6  46   8  0
 196  0 20   0   0   1  0
 197  0  0   2  45   4  0
 198  3  0   0   0   0  0
 199  0  0   5   0   0 20
 200  4  0   6  46   8  0
 201  0 20   0   0   1  0
 202  0  0   2  47   4  0
 203  1  0   0   0   0  0
 204  0  0   5   0   0 20
 205  2  0   6  48   8  0
 206  0  7   0   0   1  0
 207  0  0   2  47   4  0
 208  3  0   0   0   0  0
 209  0  0   5   0   0  7
 210  4  0   6  48   8  0
 211  0 24   0   0   1  0
 212  0  0   2  49   4  0
 213  1  0   0   0   0  0
 214  0  0   5   0   0 24
 215  2  0   6  50   8  0
 216  0 11   0   0   1  0
 217  0  0   2  49   4  0
 218  3  0   0   0   0  0
 219  0  0   5   0   0 11
 220  4  0   6  50   8  0
 221  0 17   0   0   1  0
 222  0  0   2  51   4  0
 223  1  0   0   0   0  0
 224  0  0   5   0   0 17
 225  2  0   6  52   8  0
 226  0 22   0   0   1  0
 227  0  0   2  51   4  0
 228  3  0   0   0   0  0
 229  0  0   5   0   0 22
 230  4  0   6  52   8  0
 231  0  2   0   0   1  0
 232  0  0   2  53   4  0
 233  1  0   0   0   0  0
 234  0  0   5   0   0  2
 235  2  0   6  54   8  0
 236  0 23   0   0   1  0
 237  0  0   2  53   4  0
 238  3  0   0   0   0  0
 239  0  0   5   0   0 23
 240  4  0   6  54   8  0
 241  0 15   0   0   1  0
 242  0  0   2  55   4  0
 243  1  0   0   0   0  0
 244  0  0   5   0   0 15
 245  2  0   6  56   8  0
 246  0 14   0   0   1  0
 247  0  0   2  55   4  0
 248  3  0   0   0   0  0
 249  0  0   5   0   0 14
 250  4  0   6  56   8  0
 251  0 22   0   0   1  0
 252  0  0   2  57   4  0
 253  1  0   0   0   0  0
 254  0  0   5   0   0 22
 255  2  0   6  58   8  0
 256  0  4   0   0   1  0
 257  0  0   2  57   4  0
 258  3  0   0   0   0  0
 259  0  0   5   0   0  4
 260  4  0   6  58   8  0
 261  0 21   0   0   1  0
 262  0  0   2  59   4  0
 263  1  0   0   0   0  0
 264  0  0   5   0   0 21
 265  2  0   6  60   8  0
 266  0 18   0   0   1  0
 267  0  0   2  59   4  0
 268  3  0   0   0   0  0
 269  0  0   5   0   0 18
 270  4  0   6  60   8  0
 271  0 10   0   0   1  0
 272  0  0   2  61   4  0
 273  1  0   0   0   0  0
 274  0  0   5   0   0 10
 275  2  0   6  62   8  0
 276  0 20   0   0   1  0
 277  0  0   2  61   4  0
 278  3  0   0   0   0  0
 279  0  0   5   0   0 20
 280  4  0   6  62   8  0
 281  0  9   0   0   1  0
 282  0  0   2  63   4  0
 283  1  0   0   0   0  0
 284  0  0   5   0   0  9
 285  2  0   6  64   8  0
 286  0 19   0   0   1  0
 287  0  0   2  63   4  0
 288  3  0   0   0   0  0
 289  0  0   5   0   0 19
 290  4  0   6  64   8  0
 291  0 18   0   0   1  0
 292  0  0   2  65   4  0
 293  1  0   0   0   0  0
 294  0  0   5   0   0 18
 295  2  0   6  66   8  0
 296  0  5   0   0   1  0
 297  0  0   2  65   4  0
 298  3  0   0   0   0  0
 299  0  0   5   0   0  5
 300  4  0   6  66   8  0
 301  0 17   0   0   1  0
 302  0  0   2  67   4  0
 303  1  0   0   0   0  0
 304  0  0   5   0   0 17
 305  2  0   6  68   8  0
 306  0 13   0   0   1  0
 307  0  0   2  67   4  0
 308  3  0   0   0   0  0
 309  0  0   5   0   0 13
 310  4  0   6  68   8  0
 311  0 16   0   0   1  0
 312  0  0   2  69   4  0
 313  1  0   0   0   0  0
 314  0  0   5   0   0 16
 315  2  0   6  70   8  0
 316  0 15   0   0   1  0
 317  0  0   2  69   4  0
 318  3  0   0   0   0  0
 319  0  0   5   0   0 15
 320  4  0   6  70   8  0
 321  0  1   0   0   1  0
 322  0  0   2  71   4  0
 323  1  0   0   0   0  0
 324  0  0   5   0   0  1
 325  2  0   6  72   8  0
 326  0 14   0   0   1  0
 327  0  0   2  71   4  0
 328  3  0   0   0   0  0
 329  0  0   5   0   0 14
 330  4  0   6  72   8  0
 331  0 13   0   0   1  0
 332  0  0   2  73   4  0
 333  1  0   0   0   0  0
 334  0  0   5   0   0 13
 335  2  0   6  74   8  0
 336  0 12   0   0   1  0
 337  0  0   2  73   4  0
 338  3  0   0   0   0  0
 339  0  0   5   0   0 12
 340  4  0   6  74   8  0
 341  0 11   0   0   1  0
 342  0  0   2  75   4  0
 343  1  0   0   0   0  0
 344  0  0   5   0   0 11
 345  2  0   6  76   8  0
 346  0  6   0   0   1  0
 347  0  0   2  75   4  0
 348  3  0   0   0   0  0
 349  0  0   5   0   0  6
 350  4  0   6  76   8  0
 351  0 10   0   0   1  0
 352  0  0   2  77   4  0
 353  1  0   0   0   0  0
 354  0  0   5   0   0 10
 355  2  0   6  78   8  0
 356  0  9   0   0   1  0
 357  0  0   2  77   4  0
 358  3  0   0   0   0  0
 359  0  0   5   0   0  9
 360  4  0   6  78   8  0
 361  0  8   0   0   1  0
 362  0  0   2  79   4  0
 363  1  0   0   0   0  0
 364  0  0   5   0   0  8
[RF]
1      27.4293 1 2 100 0 0
2      27.4293 1 2 100 0 2.04204
3      27.4293 1 2 100 0 6.12611
4      27.4293 1 2 100 0 5.96903
5      27.4293 1 2 100 0 1.5708
6      27.4293 1 2 100 0 5.49779
7      27.4293 1 2 100 0 5.18363
8      27.4293 1 2 100 0 0.628319
9      27.4293 1 2 100 0 4.39823
10      27.4293 1 2 100 0 3.92699
11      27.4293 1 2 100 0 2.82743
12      27.4293 1 2 100 0 2.19911
13      27.4293 1 2 100 0 3.61283
14      27.4293 1 2 100 0 0.785398
15      27.4293 1 2 100 0 1.25664
16      27.4293 1 2 100 0 4.55531
17      27.4293 1 2 100 0 4.71239
18      27.4293 1 2 100 0 0.471239
19      27.4293 1 2 100 0 1.41372
20      27.4293 1 2 100 0 3.14159
21      27.4293 1 2 100 0 5.34071
22      27.4293 1 2 100 0 2.35619
23      27.4293 1 2 100 0 3.76991
24      27.4293 1 2 100 0 2.98451

# Format of trapezoid gradients:
# id amplitude rise flat fall delay
# ..      Hz/m   us   us   us    us
[TRAP]
 1       333333  60 4000  60  40
 2      -263795  50 1900  50   0
 3      -262564  50 1900  50   0
 4      -348797  60 1880  60   0
 5       160000  30 6400  30   0
 6   1.1907e+06 190 1530 190   0
 7       262564  50 1900  50   0
 8  1.19048e+06 190  930 190   0
 9      -260513  50 1900  50   0
10       260513  50 1900  50   0
11      -258462  50 1900  50   0
12       258462  50 1900  50   0
13      -255102  40 1920  40   0
14       255102  40 1920  40   0
15      -253061  40 1920  40   0
16       253061  40 1920  40   0
17      -251020  40 1920  40   0
18       251020  40 1920  40   0
19      -248980  40 1920  40   0
20       248980  40 1920  40   0
21      -246939  40 1920  40   0
22       246939  40 1920  40   0
23      -244898  40 1920  40   0
24       244898  40 1920  40   0
25      -242857  40 1920  40   0
26       242857  40 1920  40   0
27      -240816  40 1920  40   0
28       240816  40 1920  40   0
29      -238776  40 1920  40   0
30       238776  40 1920  40   0
31      -236735  40 1920  40   0
32       236735  40 1920  40   0
33      -234694  40 1920  40   0
34       234694  40 1920  40   0
35      -232653  40 1920  40   0
36       232653  40 1920  40   0
37      -230612  40 1920  40   0
38       230612  40 1920  40   0
39      -228571  40 1920  40   0
40       228571  40 1920  40   0
41      -226531  40 1920  40   0
42       226531  40 1920  40   0
43      -224490  40 1920  40   0
44       224490  40 1920  40   0
45      -222449  40 1920  40   0
46       222449  40 1920  40   0
47      -220408  40 1920  40   0
48       220408  40 1920  40   0
49      -218367  40 1920  40   0
50       218367  40 1920  40   0
51      -216327  40 1920  40   0
52       216327  40 1920  40   0
53      -214286  40 1920  40   0
54       214286  40 1920  40   0
55      -212245  40 1920  40   0
56       212245  40 1920  40   0
57      -210204  40 1920  40   0
58       210204  40 1920  40   0
59      -208163  40 1920  40   0
60       208163  40 1920  40   0
61      -206122  40 1920  40   0
62       206122  40 1920  40   0
63      -204082  40 1920  40   0
64       204082  40 1920  40   0
65      -202041  40 1920  40   0
66       202041  40 1920  40   0
67      -200000  40 1920  40   0
68       200000  40 1920  40   0
69      -197959  40 1920  40   0
70       197959  40 1920  40   0
71      -195918  40 1920  40   0
72       195918  40 1920  40   0
73      -193878  40 1920  40   0
74       193878  40 1920  40   0
75      -190863  30 1940  30   0
76       190863  30 1940  30   0
77      -188832  30 1940  30   0
78       188832  30 1940  30   0
79      -186802  30 1940  30   0
80       186802  30 1940  30   0
81      -184772  30 1940  30   0
82       184772  30 1940  30   0
83      -182741  30 1940  30   0
84       182741  30 1940  30   0
85      -180711  30 1940  30   0
86       180711  30 1940  30   0
87      -178680  30 1940  30   0
88       178680  30 1940  30   0
89      -176650  30 1940  30   0
90       176650  30 1940  30   0
91      -174619  30 1940  30   0
92       174619  30 1940  30   0
93      -172589  30 1940  30   0
94       172589  30 1940  30   0
95      -170558  30 1940  30   0
96       170558  30 1940  30   0
97      -168528  30 1940  30   0
98       168528  30 1940  30   0
99      -166497  30 1940  30   0
100       166497  30 1940  30   0
101      -164467  30 1940  30   0
102       164467  30 1940  30   0
103      -162437  30 1940  30   0
104       162437  30 1940  30   0
105      -160406  30 1940  30   0
106       160406  30 1940  30   0
107      -158376  30 1940  30   0
108       158376  30 1940  30   0
109      -156345  30 1940  30   0
110       156345  30 1940  30   0
111      -154315  30 1940  30   0
112       154315  30 1940  30   0
113      -152284  30 1940  30   0
114       152284  30 1940  30   0
115      -150254  30 1940  30   0
116       150254  30 1940  30   0
117      -148223  30 1940  30   0
118       148223  30 1940  30   0
119      -146193  30 1940  30   0
120       146193  30 1940  30   0
121      -144162  30 1940  30   0
122       144162  30 1940  30   0
123      -142132  30 1940  30   0
124       142132  30 1940  30   0
125      -140102  30 1940  30   0
126       140102  30 1940  30   0
127      -138071  30 1940  30   0
128       138071  30 1940  30   0
129      -136041  30 1940  30   0
130       136041  30 1940  30   0
131      -134010  30 1940  30   0
132       134010  30 1940  30   0
133      -131980  30 1940  30   0
134       131980  30 1940  30   0
135      -129949  30 1940  30   0
136       129949  30 1940  30   0
137      -127273  20 1960  20   0
138       127273  20 1960  20   0
139      -125253  20 1960  20   0
140       125253  20 1960  20   0
141      -123232  20 1960  20   0
142       123232  20 1960  20   0
143      -121212  20 1960  20   0
144       121212  20 1960  20   0
145      -119192  20 1960  20   0
146       119192  20 1960  20   0
147      -117172  20 1960  20   0
148       117172  20 1960  20   0
149      -115152  20 1960  20   0
150       115152  20 1960  20   0
151      -113131  20 1960  20   0
152       113131  20 1960  20   0
153      -111111  20 1960  20   0
154       111111  20 1960  20   0
155      -109091  20 1960  20   0
156       109091  20 1960  20   0
157      -107071  20 1960  20   0
158       107071  20 1960  20   0
159      -105051  20 1960  20   0
160       105051  20 1960  20   0
161      -103030  20 1960  20   0
162       103030  20 1960  20   0
163      -101010  20 1960  20   0
164       101010  20 1960  20   0
165     -98989.9  20 1960  20   0
166      98989.9  20 1960  20   0
167     -96969.7  20 1960  20   0
168      96969.7  20 1960  20   0
169     -94949.5  20 1960  20   0
170      94949.5  20 1960  20   0
171     -92929.3  20 1960  20   0
172      92929.3  20 1960  20   0
173     -90909.1  20 1960  20   0
174      90909.1  20 1960  20   0
175     -88888.9  20 1960  20   0
176      88888.9  20 1960  20   0
177     -86868.7  20 1960  20   0
178      86868.7  20 1960  20   0
179     -84848.5  20 1960  20   0
180      84848.5  20 1960  20   0
181     -82828.3  20 1960  20   0
182      82828.3  20 1960  20   0
183     -80808.1  20 1960  20   0
184      80808.1  20 1960  20   0
185     -78787.9  20 1960  20   0
186      78787.9  20 1960  20   0
187     -76767.7  20 1960  20   0
188      76767.7  20 1960  20   0
189     -74747.5  20 1960  20   0
190      74747.5  20 1960  20   0
191     -72727.3  20 1960  20   0
192      72727.3  20 1960  20   0
193     -70707.1  20 1960  20   0
194      70707.1  20 1960  20   0
195     -68686.9  20 1960  20   0
196      68686.9  20 1960  20   0
197     -66666.7  20 1960  20   0
198      66666.7  20 1960  20   0
199     -64646.5  20 1960  20   0
200      64646.5  20 1960  20   0
201     -62311.6  10 1980  10   0
202      62311.6  10 1980  10   0
203     -60301.5  10 1980  10   0
204      60301.5  10 1980  10   0
205     -58291.5  10 1980  10   0
206      58291.5  10 1980  10   0
207     -56281.4  10 1980  10   0
208      56281.4  10 1980  10   0
209     -54271.4  10 1980  10   0
210      54271.4  10 1980  10   0
211     -52261.3  10 1980  10   0
212      52261.3  10 1980  10   0
213     -50251.3  10 1980  10   0
214      50251.3  10 1980  10   0
215     -48241.2  10 1980  10   0
216      48241.2  10 1980  10   0
217     -46231.2  10 1980  10   0
218      46231.2  10 1980  10   0
219     -44221.1  10 1980  10   0
220      44221.1  10 1980  10   0
221     -42211.1  10 1980  10   0
222      42211.1  10 1980  10   0
223       -40201  10 1980  10   0
224        40201  10 1980  10   0
225       -38191  10 1980  10   0
226        38191  10 1980  10   0
227     -36180.9  10 1980  10   0
228      36180.9  10 1980  10   0
229     -34170.9  10 1980  10   0
230      34170.9  10 1980  10   0
231     -32160.8  10 1980  10   0
232      32160.8  10 1980  10   0
233     -30150.8  10 1980  10   0
234      30150.8  10 1980  10   0
235     -28140.7  10 1980  10   0
236      28140.7  10 1980  10   0
237     -26130.7  10 1980  10   0
238      26130.7  10 1980  10   0
239     -24120.6  10 1980  10   0
240      24120.6  10 1980  10   0
241     -22110.6  10 1980  10   0
242      22110.6  10 1980  10   0
243     -20100.5  10 1980  10   0
244      20100.5  10 1980  10   0
245     -18090.5  10 1980  10   0
246      18090.5  10 1980  10   0
247     -16080.4  10 1980  10   0
248      16080.4  10 1980  10   0
249     -14070.4  10 1980  10   0
250      14070.4  10 1980  10   0
251     -12060.3  10 1980  10   0
252      12060.3  10 1980  10   0
253     -10050.3  10 1980  10   0
254      10050.3  10 1980  10   0
255      -8040.2  10 1980  10   0
256       8040.2  10 1980  10   0
257     -6030.15  10 1980  10   0
258      6030.15  10 1980  10   0
259      -4020.1  10 1980  10   0
260       4020.1  10 1980  10   0
261     -2010.05  10 1980  10   0
262      2010.05  10 1980  10   0
263            0   0 2000   0   0
264           -0   0 2000   0   0

# Format of ADC events:
# id num dwell delay freq phase
# ..  ..    ns    us   Hz   rad
[ADC]
1 256 25000 30 0 0
2 256 25000 30 0 2.04204
3 256 25000 30 0 6.12611
4 256 25000 30 0 5.96903
5 256 25000 30 0 1.5708
6 256 25000 30 0 5.49779
7 256 25000 30 0 5.18363
8 256 25000 30 0 0.628319
9 256 25000 30 0 4.39823
10 256 25000 30 0 3.92699
11 256 25000 30 0 2.82743
12 256 25000 30 0 2.19911
13 256 25000 30 0 3.61283
14 256 25000 30 0 0.785398
15 256 25000 30 0 1.25664
16 256 25000 30 0 4.55531
17 256 25000 30 0 4.71239
18 256 25000 30 0 0.471239
19 256 25000 30 0 1.41372
20 256 25000 30 0 3.14159
21 256 25000 30 0 5.34071
22 256 25000 30 0 2.35619
23 256 25000 30 0 3.76991
24 256 25000 30 0 2.98451

# Format of delays:
# id delay (us)
[DELAYS]
1 100
2 87280
3 2550
4 84840

# Sequence Shapes
[SHAPES]

shape_id 1
num_samples 4020
0
0
0
1e-08
1e-08
0
2e-08
3e-08
4e-08
5e-08
7e-08
8e-08
1e-07
1.3e-07
1.4e-07
1.7e-07
2e-07
2.2e-07
2.6e-07
2.8e-07
3.2e-07
3.6e-07
3.9e-07
4.4e-07
4.7e-07
5.2e-07
5.6e-07
6.2e-07
6.6e-07
7.1e-07
7.6e-07
8.2e-07
8.8e-07
9.3e-07
1e-06
1.06e-06
1.12e-06
1.19e-06
1.26e-06
1.33e-06
1.4e-06
1.47e-06
1.55e-06
1.63e-06
1.72e-06
1.79e-06
1.87e-06
1.97e-06
2.05e-06
2.14e-06
2.23e-06
2.33e-06
2.42e-06
2.52e-06
2.62e-06
2.72e-06
2.83e-06
2.93e-06
3.04e-06
3.15e-06
3.26e-06
3.37e-06
3.49e-06
3.61e-06
3.73e-06
3.84e-06
3.97e-06
4.1e-06
4.22e-06
4.36e-06
4.48e-06
4.62e-06
4.75e-06
4.89e-06
5.02e-06
5.17e-06
5.31e-06
5.46e-06
5.6e-06
5.76e-06
5.9e-06
6.05e-06
6.21e-06
6.37e-06
6.52e-06
6.69e-06
6.85e-06
7.01e-06
7.18e-06
7.34e-06
7.52e-06
7.69e-06
7.86e-06
8.04e-06
8.21e-06
8.4e-06
8.57e-06
8.76e-06
8.95e-06
9.13e-06
9.32e-06
9.52e-06
9.7e-06
9.91e-06
1.009e-05
1.03e-05
1.05e-05
1.07e-05
1.09e-05
1.111e-05
1.132e-05
1.153e-05
1.174e-05
1.196e-05
1.217e-05
1.239e-05
1.26e-05
1.283e-05
1.305e-05
1.328e-05
1.35e-05
1.374e-05
1.396e-05
1.419e-05
1.443e-05
1.466e-05
1.491e-05
1.514e-05
1.538e-05
1.562e-05
1.587e-05
1.612e-05
1.637e-05
1.661e-05
1.687e-05
1.712e-05
1.738e-05
1.763e-05
1.79e-05
1.815e-05
1.842e-05
1.868e-05
1.894e-05
1.922e-05
1.948e-05
1.976e-05
2.003e-05
2.03e-05
2.058e-05
2.085e-05
2.114e-05
2.142e-05
2.17e-05
2.198e-05
2.228e-05
2.256e-05
2.284e-05
2.315e-05
2.343e-05
2.373e-05
2.402e-05
2.432e-05
2.462e-05
2.492e-05
2.523e-05
2.553e-05
2.583e-05
2.614e-05
2.645e-05
2.676e-05
2.707e-05
2.739e-05
2.77e-05
2.802e-05
2.833e-05
2.866e-05
2.897e-05
2.93e-05
2.962e-05
2.995e-05
3.027e-05
3.06e-05
3.094e-05
3.126e-05
3.159e-05
3.193e-05
3.227e-05
3.26e-05
3.294e-05
3.328e-05
3.362e-05
3.397e-05
3.431e-05
3.465e-05
3.5e-05
3.534e-05
3.57e-05
3.605e-05
3.639e-05
3.676e-05
3.71e-05
3.746e-05
3.782e-05
3.818e-05
3.853e-05
3.89e-05
3.926e-05
3.962e-05
3.998e-05
4.035e-05
4.072e-05
4.108e-05
4.146e-05
4.182e-05
4.219e-05
4.257e-05
4.294e-05
4.332e-05
4.369e-05
4.407e-05
4.444e-05
4.483e-05
4.52e-05
4.559e-05
4.596e-05
4.635e-05
4.674e-05
4.712e-05
4.75e-05
4.79e-05
4.828e-05
4.867e-05
4.906e-05
4.945e-05
4.984e-05
5.023e-05
5.063e-05
5.103e-05
5.141e-05
5.182e-05
5.221e-05
5.261e-05
5.3e-05
5.341e-05
5.381e-05
5.421e-05
5.461e-05
5.501e-05
5.541e-05
5.582e-05
5.623e-05
5.663e-05
5.703e-05
5.745e-05
5.785e-05
5.826e-05
5.866e-05
5.908e-05
5.949e-05
5.989e-05
6.031e-05
6.072e-05
6.113e-05
6.155e-05
6.196e-05
6.237e-05
6.279e-05
6.32e-05
6.362e-05
6.403e-05
6.445e-05
6.486e-05
6.529e-05
6.57e-05
6.612e-05
6.654e-05
6.695e-05
6.738e-05
6.779e-05
6.822e-05
6.863e-05
6.905e-05
6.948e-05
6.99e-05
7.031e-05
7.074e-05
7.116e-05
7.158e-05
7.201e-05
7.242e-05
7.285e-05
7.327e-05
7.369e-05
7.412e-05
7.454e-05
7.496e-05
7.539e-05
7.58e-05
7.623e-05
7.666e-05
7.707e-05
7.75e-05
7.793e-05
7.834e-05
7.877e-05
7.919e-05
7.962e-05
8.003e-05
8.046e-05
8.088e-05
8.131e-05
8.173e-05
8.214e-05
8.257e-05
8.3e-05
8.341e-05
8.383e-05
8.426e-05
8.467e-05
8.51e-05
8.551e-05
8.594e-05
8.635e-05
8.677e-05
8.719e-05
8.761e-05
8.803e-05
8.845e-05
8.886e-05
8.927e-05
8.97e-05
9.011e-05
9.052e-05
9.094e-05
9.135e-05
9.176e-05
9.218e-05
9.259e-05
9.3e-05
9.341e-05
9.382e-05
9.423e-05
9.464e-05
9.505e-05
9.546e-05
9.586e-05
9.627e-05
9.667e-05
9.708e-05
9.748e-05
9.788e-05
9.829e-05
9.868e-05
9.909e-05
9.949e-05
9.988e-05
0.00010028
0.00010068
0.00010107
0.00010147
0.00010186
0.00010226
0.00010264
0.00010304
0.00010343
0.00010381
0.0001042
0.00010459
0.00010497
0.00010535
0.00010574
0.00010612
0.0001065
0.00010688
0.00010726
0.00010763
0.00010801
0.00010838
0.00010875
0.00010913
0.00010949
0.00010986
0.00011024
0.00011059
0.00011096
0.00011132
0.00011169
0.00011204
0.0001124
0.00011276
0.00011312
0.00011346
0.00011382
0.00011417
0.00011452
0.00011487
0.00011521
0.00011555
0.0001159
0.00011624
0.00011658
0.00011691
0.00011725
0.00011758
0.00011792
0.00011824
0.00011857
0.0001189
0.00011922
0.00011954
0.00011987
0.00012018
0.0001205
0.00012081
0.00012113
0.00012144
0.00012174
0.00012205
0.00012236
0.00012266
0.00012296
0.00012325
0.00012356
0.00012384
0.00012414
0.00012443
0.00012471
0.000125
0.00012528
0.00012557
0.00012584
0.00012611
0.00012639
0.00012666
0.00012693
0.0001272
0.00012746
0.00012772
0.00012798
0.00012823
0.00012849
0.00012874
0.000129
0.00012923
0.00012948
0.00012973
0.00012996
0.0001302
0.00013043
0.00013066
0.00013089
0.00013111
0.00013134
0.00013156
0.00013178
0.00013199
0.0001322
0.00013241
0.00013261
0.00013282
0.00013302
0.00013322
0.00013341
0.00013361
0.00013379
0.00013398
0.00013416
0.00013434
0.00013452
0.00013469
0.00013486
0.00013503
0.0001352
0.00013535
0.00013551
0.00013567
0.00013582
0.00013597
0.00013612
0.00013626
0.00013639
0.00013654
0.00013666
0.0001368
0.00013692
0.00013704
0.00013716
0.00013728
0.00013739
0.0001375
0.00013761
0.0001377
0.00013781
0.0001379
0.000138
0.00013808
0.00013817
0.00013824
0.00013833
0.0001384
0.00013847
0.00013854
0.0001386
0.00013866
0.00013871
0.00013877
0.00013881
0.00013886
0.00013891
0.00013893
0.00013898
0.000139
0.00013903
0.00013904
0.00013907
0.00013908
0.00013909
0.0001391
0.0001391
1
0.00013909
0.00013909
0
0.00013907
0.00013905
0.00013903
0.00013901
0.00013897
0.00013894
0.00013891
0.00013886
0.00013882
0.00013876
0.00013871
0.00013866
0.00013859
0.00013852
0.00013845
0.00013837
0.0001383
0.00013821
0.00013812
0.00013803
0.00013794
0.00013783
0.00013772
0.00013762
0.0001375
0.00013738
0.00013726
0.00013713
0.00013699
0.00013686
0.00013672
0.00013658
0.00013642
0.00013626
0.00013611
0.00013594
0.00013578
0.0001356
0.00013542
0.00013524
0.00013505
0.00013486
0.00013466
0.00013446
0.00013425
0.00013405
0.00013382
0.00013361
0.00013338
0.00013315
0.00013292
0.00013267
0.00013243
0.00013218
0.00013193
0.00013167
0.0001314
0.00013113
0.00013086
0.00013058
0.0001303
0.00013
0.00012971
0.00012942
0.0001291
0.0001288
0.00012849
0.00012816
0.00012784
0.00012752
0.00012717
0.00012684
0.00012649
0.00012614
0.00012578
0.00012543
0.00012506
0.00012469
0.00012431
0.00012393
0.00012354
0.00012315
0.00012275
0.00012236
0.00012194
0.00012153
0.00012111
0.00012069
0.00012026
0.00011982
0.00011938
0.00011894
0.00011849
0.00011803
0.00011756
0.0001171
0.00011663
0.00011615
0.00011567
0.00011518
0.00011468
0.00011418
0.00011368
0.00011316
0.00011265
0.00011212
0.0001116
0.00011107
0.00011052
0.00010998
0.00010943
0.00010887
0.00010831
0.00010775
0.00010717
0.00010659
0.000106
0.00010542
0.00010482
0.00010422
0.00010361
0.000103
0.00010238
0.00010175
0.00010112
0.00010049
9.985e-05
9.919e-05
9.855e-05
9.788e-05
9.722e-05
9.654e-05
9.587e-05
9.519e-05
9.45e-05
9.38e-05
9.31e-05
9.239e-05
9.169e-05
9.096e-05
9.024e-05
8.951e-05
8.877e-05
8.803e-05
8.728e-05
8.653e-05
8.577e-05
8.5e-05
8.423e-05
8.345e-05
8.266e-05
8.188e-05
8.108e-05
8.028e-05
7.947e-05
7.865e-05
7.783e-05
7.701e-05
7.617e-05
7.534e-05
7.449e-05
7.364e-05
7.278e-05
7.192e-05
7.105e-05
7.017e-05
6.929e-05
6.841e-05
6.751e-05
6.661e-05
6.57e-05
6.479e-05
6.388e-05
6.294e-05
6.202e-05
6.108e-05
6.014e-05
5.918e-05
5.823e-05
5.727e-05
5.63e-05
5.533e-05
5.435e-05
5.335e-05
5.237e-05
5.137e-05
5.036e-05
4.934e-05
4.833e-05
4.731e-05
4.627e-05
4.524e-05
4.42e-05
4.314e-05
4.209e-05
4.103e-05
3.996e-05
3.888e-05
3.78e-05
3.672e-05
3.562e-05
3.452e-05
3.342e-05
3.23e-05
3.119e-05
3.006e-05
2.893e-05
2.779e-05
2.664e-05
2.55e-05
2.434e-05
2.318e-05
2.2e-05
2.083e-05
1.965e-05
1.846e-05
1.727e-05
1.606e-05
1.486e-05
1.364e-05
1.243e-05
1.119e-05
9.97e-06
8.72e-06
7.48e-06
6.23e-06
4.96e-06
3.71e-06
2.43e-06
1.16e-06
-1.3e-07
-1.42e-06
-2.71e-06
-4.02e-06
-5.32e-06
-6.64e-06
-7.97e-06
-9.29e-06
-1.062e-05
-1.197e-05
-1.331e-05
-1.467e-05
-1.603e-05
-1.739e-05
-1.876e-05
-2.015e-05
-2.153e-05
-2.292e-05
-2.432e-05
-2.572e-05
-2.713e-05
-2.855e-05
-2.997e-05
-3.14e-05
-3.284e-05
-3.428e-05
-3.573e-05
-3.718e-05
-3.865e-05
-4.011e-05
-4.158e-05
-4.307e-05
-4.455e-05
-4.604e-05
-4.754e-05
-4.905e-05
-5.056e-05
-5.208e-05
-5.36e-05
-5.513e-05
-5.666e-05
-5.821e-05
-5.976e-05
-6.131e-05
-6.288e-05
-6.444e-05
-6.601e-05
-6.76e-05
-6.918e-05
-7.077e-05
-7.238e-05
-7.397e-05
-7.559e-05
-7.721e-05
-7.883e-05
-8.046e-05
-8.209e-05
-8.374e-05
-8.538e-05
-8.704e-05
-8.87e-05
-9.037e-05
-9.204e-05
-9.372e-05
