# Pulseq sequence file
# Created by PyPulseq

[VERSION]
major 1
minor 3
revision 1post1

[DEFINITIONS]
Total duration 2.56 
FOV 0.25 0.25 0.003 
Name UTE 

# Format of blocks:
#  #  D RF  GX  GY  GZ ADC EXT
[BLOCKS]
   1  0  1   0   0   1  0  0
   2  0  0   2   3   4  0  0
   3  0  0   5   6   0  1  0
   4  1  0   7   8   0  0  0
   5  0  2   0   0   9  0  0
   6  0  0   2   3  10  0  0
   7  0  0   5   6   0  2  0
   8  1  0   7   8   0  0  0
   9  0  3   0   0   1  0  0
  10  0  0  11  12   4  0  0
  11  0  0  13  14   0  3  0
  12  1  0  15  16   0  0  0
  13  0  4   0   0   9  0  0
  14  0  0  11  12  10  0  0
  15  0  0  13  14   0  4  0
  16  1  0  15  16   0  0  0
  17  0  5   0   0   1  0  0
  18  0  0  17  18   4  0  0
  19  0  0  19  20   0  5  0
  20  1  0  21  22   0  0  0
  21  0  6   0   0   9  0  0
  22  0  0  17  18  10  0  0
  23  0  0  19  20   0  6  0
  24  1  0  21  22   0  0  0
  25  0  7   0   0   1  0  0
  26  0  0  23  24   4  0  0
  27  0  0  25  26   0  7  0
  28  1  0  27  28   0  0  0
  29  0  8   0   0   9  0  0
  30  0  0  23  24  10  0  0
  31  0  0  25  26   0  8  0
  32  1  0  27  28   0  0  0
  33  0  9   0   0   1  0  0
  34  0  0  29  30   4  0  0
  35  0  0  31  32   0  9  0
  36  1  0  33  34   0  0  0
  37  0 10   0   0   9  0  0
  38  0  0  29  30  10  0  0
  39  0  0  31  32   0 10  0
  40  1  0  33  34   0  0  0
  41  0  6   0   0   1  0  0
  42  0  0  35  36   4  0  0
  43  0  0  37  38   0  6  0
  44  1  0  39  40   0  0  0
  45  0 11   0   0   9  0  0
  46  0  0  35  36  10  0  0
  47  0  0  37  38   0 11  0
  48  1  0  39  40   0  0  0
  49  0 12   0   0   1  0  0
  50  0  0  41  42   4  0  0
  51  0  0  43  44   0 12  0
  52  1  0  45  46   0  0  0
  53  0 13   0   0   9  0  0
  54  0  0  41  42  10  0  0
  55  0  0  43  44   0 13  0
  56  1  0  45  46   0  0  0
  57  0 14   0   0   1  0  0
  58  0  0  47  48   4  0  0
  59  0  0  49  50   0 14  0
  60  1  0  51  52   0  0  0
  61  0  1   0   0   9  0  0
  62  0  0  47  48  10  0  0
  63  0  0  49  50   0  1  0
  64  1  0  51  52   0  0  0
  65  0 15   0   0   1  0  0
  66  0  0  53  54   4  0  0
  67  0  0  55  56   0 15  0
  68  1  0  57  58   0  0  0
  69  0 16   0   0   9  0  0
  70  0  0  53  54  10  0  0
  71  0  0  55  56   0 16  0
  72  1  0  57  58   0  0  0
  73  0 13   0   0   1  0  0
  74  0  0  59  60   4  0  0
  75  0  0  61  62   0 13  0
  76  1  0  63  64   0  0  0
  77  0 17   0   0   9  0  0
  78  0  0  59  60  10  0  0
  79  0  0  61  62   0 17  0
  80  1  0  63  64   0  0  0
  81  0  5   0   0   1  0  0
  82  0  0  65  66   4  0  0
  83  0  0  67  68   0  5  0
  84  1  0  69  70   0  0  0
  85  0 18   0   0   9  0  0
  86  0  0  65  66  10  0  0
  87  0  0  67  68   0 18  0
  88  1  0  69  70   0  0  0
  89  0 19   0   0   1  0  0
  90  0  0  71  72   4  0  0
  91  0  0  73  74   0 19  0
  92  1  0  75  76   0  0  0
  93  0  9   0   0   9  0  0
  94  0  0  71  72  10  0  0
  95  0  0  73  74   0  9  0
  96  1  0  75  76   0  0  0
  97  0 20   0   0   1  0  0
  98  0  0  77  78   4  0  0
  99  0  0  79  80   0 20  0
 100  1  0  81  82   0  0  0
 101  0 10   0   0   9  0  0
 102  0  0  77  78  10  0  0
 103  0  0  79  80   0 10  0
 104  1  0  81  82   0  0  0
 105  0 18   0   0   1  0  0
 106  0  0  83  84   4  0  0
 107  0  0  85  86   0 18  0
 108  1  0  87  88   0  0  0
 109  0 21   0   0   9  0  0
 110  0  0  83  84  10  0  0
 111  0  0  85  86   0 21  0
 112  1  0  87  88   0  0  0
 113  0  4   0   0   1  0  0
 114  0  0  89  90   4  0  0
 115  0  0  91  92   0  4  0
 116  1  0  93  94   0  0  0
 117  0 22   0   0   9  0  0
 118  0  0  89  90  10  0  0
 119  0  0  91  92   0 22  0
 120  1  0  93  94   0  0  0
 121  0 14   0   0   1  0  0
 122  0  0  95  96   4  0  0
 123  0  0  97  98   0 14  0
 124  1  0  99 100   0  0  0
 125  0 15   0   0   9  0  0
 126  0  0  95  96  10  0  0
 127  0  0  97  98   0 15  0
 128  1  0  99 100   0  0  0
 129  0 23   0   0   1  0  0
 130  0  0 101 101   4  0  0
 131  0  0 102 102   0 23  0
 132  1  0 103 103   0  0  0
 133  0  2   0   0   9  0  0
 134  0  0 101 101  10  0  0
 135  0  0 102 102   0  2  0
 136  1  0 103 103   0  0  0
 137  0 22   0   0   1  0  0
 138  0  0  96  95   4  0  0
 139  0  0  98  97   0 22  0
 140  1  0 100  99   0  0  0
 141  0 17   0   0   9  0  0
 142  0  0  96  95  10  0  0
 143  0  0  98  97   0 17  0
 144  1  0 100  99   0  0  0
 145  0 11   0   0   1  0  0
 146  0  0  90  89   4  0  0
 147  0  0  92  91   0 11  0
 148  1  0  94  93   0  0  0
 149  0 24   0   0   9  0  0
 150  0  0  90  89  10  0  0
 151  0  0  92  91   0 24  0
 152  1  0  94  93   0  0  0
 153  0  7   0   0   1  0  0
 154  0  0  84  83   4  0  0
 155  0  0  86  85   0  7  0
 156  1  0  88  87   0  0  0
 157  0 20   0   0   9  0  0
 158  0  0  84  83  10  0  0
 159  0  0  86  85   0 20  0
 160  1  0  88  87   0  0  0
 161  0 20   0   0   1  0  0
 162  0  0  78  77   4  0  0
 163  0  0  80  79   0 20  0
 164  1  0  82  81   0  0  0
 165  0  7   0   0   9  0  0
 166  0  0  78  77  10  0  0
 167  0  0  80  79   0  7  0
 168  1  0  82  81   0  0  0
 169  0 24   0   0   1  0  0
 170  0  0  72  71   4  0  0
 171  0  0  74  73   0 24  0
 172  1  0  76  75   0  0  0
 173  0 11   0   0   9  0  0
 174  0  0  72  71  10  0  0
 175  0  0  74  73   0 11  0
 176  1  0  76  75   0  0  0
 177  0 17   0   0   1  0  0
 178  0  0  66  65   4  0  0
 179  0  0  68  67   0 17  0
 180  1  0  70  69   0  0  0
 181  0 22   0   0   9  0  0
 182  0  0  66  65  10  0  0
 183  0  0  68  67   0 22  0
 184  1  0  70  69   0  0  0
 185  0  2   0   0   1  0  0
 186  0  0  60  59   4  0  0
 187  0  0  62  61   0  2  0
 188  1  0  64  63   0  0  0
 189  0 23   0   0   9  0  0
 190  0  0  60  59  10  0  0
 191  0  0  62  61   0 23  0
 192  1  0  64  63   0  0  0
 193  0 15   0   0   1  0  0
 194  0  0  54  53   4  0  0
 195  0  0  56  55   0 15  0
 196  1  0  58  57   0  0  0
 197  0 14   0   0   9  0  0
 198  0  0  54  53  10  0  0
 199  0  0  56  55   0 14  0
 200  1  0  58  57   0  0  0
 201  0 22   0   0   1  0  0
 202  0  0  48  47   4  0  0
 203  0  0  50  49   0 22  0
 204  1  0  52  51   0  0  0
 205  0  4   0   0   9  0  0
 206  0  0  48  47  10  0  0
 207  0  0  50  49   0  4  0
 208  1  0  52  51   0  0  0
 209  0 21   0   0   1  0  0
 210  0  0  42  41   4  0  0
 211  0  0  44  43   0 21  0
 212  1  0  46  45   0  0  0
 213  0 18   0   0   9  0  0
 214  0  0  42  41  10  0  0
 215  0  0  44  43   0 18  0
 216  1  0  46  45   0  0  0
 217  0 10   0   0   1  0  0
 218  0  0  36  35   4  0  0
 219  0  0  38  37   0 10  0
 220  1  0  40  39   0  0  0
 221  0 20   0   0   9  0  0
 222  0  0  36  35  10  0  0
 223  0  0  38  37   0 20  0
 224  1  0  40  39   0  0  0
 225  0  9   0   0   1  0  0
 226  0  0  30  29   4  0  0
 227  0  0  32  31   0  9  0
 228  1  0  34  33   0  0  0
 229  0 19   0   0   9  0  0
 230  0  0  30  29  10  0  0
 231  0  0  32  31   0 19  0
 232  1  0  34  33   0  0  0
 233  0 18   0   0   1  0  0
 234  0  0  24  23   4  0  0
 235  0  0  26  25   0 18  0
 236  1  0  28  27   0  0  0
 237  0  5   0   0   9  0  0
 238  0  0  24  23  10  0  0
 239  0  0  26  25   0  5  0
 240  1  0  28  27   0  0  0
 241  0 17   0   0   1  0  0
 242  0  0  18  17   4  0  0
 243  0  0  20  19   0 17  0
 244  1  0  22  21   0  0  0
 245  0 13   0   0   9  0  0
 246  0  0  18  17  10  0  0
 247  0  0  20  19   0 13  0
 248  1  0  22  21   0  0  0
 249  0 16   0   0   1  0  0
 250  0  0  12  11   4  0  0
 251  0  0  14  13   0 16  0
 252  1  0  16  15   0  0  0
 253  0 15   0   0   9  0  0
 254  0  0  12  11  10  0  0
 255  0  0  14  13   0 15  0
 256  1  0  16  15   0  0  0
 257  0  1   0   0   1  0  0
 258  0  0 104   2   4  0  0
 259  0  0 105   5   0  1  0
 260  1  0 106   7   0  0  0
 261  0 14   0   0   9  0  0
 262  0  0 104   2  10  0  0
 263  0  0 105   5   0 14  0
 264  1  0 106   7   0  0  0
 265  0 13   0   0   1  0  0
 266  0  0 107  11   4  0  0
 267  0  0 108  13   0 13  0
 268  1  0 109  15   0  0  0
 269  0 12   0   0   9  0  0
 270  0  0 107  11  10  0  0
 271  0  0 108  13   0 12  0
 272  1  0 109  15   0  0  0
 273  0 11   0   0   1  0  0
 274  0  0 110  17   4  0  0
 275  0  0 111  19   0 11  0
 276  1  0 112  21   0  0  0
 277  0  6   0   0   9  0  0
 278  0  0 110  17  10  0  0
 279  0  0 111  19   0  6  0
 280  1  0 112  21   0  0  0
 281  0 10   0   0   1  0  0
 282  0  0 113  23   4  0  0
 283  0  0 114  25   0 10  0
 284  1  0 115  27   0  0  0
 285  0  9   0   0   9  0  0
 286  0  0 113  23  10  0  0
 287  0  0 114  25   0  9  0
 288  1  0 115  27   0  0  0
 289  0  8   0   0   1  0  0
 290  0  0 116  29   4  0  0
 291  0  0 117  31   0  8  0
 292  1  0 118  33   0  0  0
 293  0  7   0   0   9  0  0
 294  0  0 116  29  10  0  0
 295  0  0 117  31   0  7  0
 296  1  0 118  33   0  0  0
 297  0  6   0   0   1  0  0
 298  0  0 119  35   4  0  0
 299  0  0 120  37   0  6  0
 300  1  0 121  39   0  0  0
 301  0  5   0   0   9  0  0
 302  0  0 119  35  10  0  0
 303  0  0 120  37   0  5  0
 304  1  0 121  39   0  0  0
 305  0  4   0   0   1  0  0
 306  0  0 122  41   4  0  0
 307  0  0 123  43   0  4  0
 308  1  0 124  45   0  0  0
 309  0  3   0   0   9  0  0
 310  0  0 122  41  10  0  0
 311  0  0 123  43   0  3  0
 312  1  0 124  45   0  0  0
 313  0  2   0   0   1  0  0
 314  0  0 125  47   4  0  0
 315  0  0 126  49   0  2  0
 316  1  0 127  51   0  0  0
 317  0  1   0   0   9  0  0
 318  0  0 125  47  10  0  0
 319  0  0 126  49   0  1  0
 320  1  0 127  51   0  0  0
 321  0  1   0   0   1  0  0
 322  0  0 128  53   4  0  0
 323  0  0 129  55   0  1  0
 324  1  0 130  57   0  0  0
 325  0  2   0   0   9  0  0
[RF]
1      160.822 1 2 160 0 0
2      160.822 1 2 160 0 2.04204
3      160.822 1 2 160 0 6.12611
4      160.822 1 2 160 0 5.96903
5      160.822 1 2 160 0 1.5708
6      160.822 1 2 160 0 5.49779
7      160.822 1 2 160 0 5.18363
8      160.822 1 2 160 0 0.628319
9      160.822 1 2 160 0 4.39823
10      160.822 1 2 160 0 3.92699
11      160.822 1 2 160 0 2.82743
12      160.822 1 2 160 0 2.19911
13      160.822 1 2 160 0 3.61283
14      160.822 1 2 160 0 0.785398
15      160.822 1 2 160 0 1.25664
16      160.822 1 2 160 0 4.55531
17      160.822 1 2 160 0 4.71239
18      160.822 1 2 160 0 0.471239
19      160.822 1 2 160 0 1.41372
20      160.822 1 2 160 0 3.14159
21      160.822 1 2 160 0 5.34071
22      160.822 1 2 160 0 2.35619
23      160.822 1 2 160 0 3.76991
24      160.822 1 2 160 0 2.98451

# Format of trapezoid gradients:
# id amplitude rise flat fall delay
# ..      Hz/m   us   us   us    us
[TRAP]
 1      -666667 160 1000 160   0
 2      -202840  60    0  60 120
 3           -0  60    0  60 120
 4       444444 120    0 120   0
 5       202840  50 2500  50   0
 6            0  50 2500  50   0
 7       633874 160    0 160   0
 8            0 160    0 160   0
 9       666667 160 1000 160   0
10      -444444 120    0 120   0
11      -202595  60    0  60 120
12     -9952.88  60    0  60 120
13       202595  50 2500  50   0
14      9952.88  50 2500  50   0
15       633111 160    0 160   0
16      31102.7 160    0 160   0
17      -201863  60    0  60 120
18     -19881.8  60    0  60 120
19       201863  50 2500  50   0
20      19881.8  50 2500  50   0
21       630822 160    0 160   0
22      62130.5 160    0 160   0
23      -200644  60    0  60 120
24     -29762.8  60    0  60 120
25       200644  50 2500  50   0
26      29762.8  50 2500  50   0
27       627014 160    0 160   0
28      93008.7 160    0 160   0
29      -198942  60    0  60 120
30     -39572.1  60    0  60 120
31       198942  50 2500  50   0
32      39572.1  50 2500  50   0
33       621695 160    0 160   0
34       123663 160    0 160   0
35      -196761  60    0  60 120
36       -49286  60    0  60 120
37       196761  50 2500  50   0
38        49286  50 2500  50   0
39       614878 160    0 160   0
40       154019 160    0 160   0
41      -194106  60    0  60 120
42     -58881.3  60    0  60 120
43       194106  50 2500  50   0
44      58881.3  50 2500  50   0
45       606580 160    0 160   0
46       184004 160    0 160   0
47      -190983  60    0  60 120
48     -68334.7  60    0  60 120
49       190983  50 2500  50   0
50      68334.7  50 2500  50   0
51       596821 160    0 160   0
52       213546 160    0 160   0
53      -187399  60    0  60 120
54     -77623.4  60    0  60 120
55       187399  50 2500  50   0
56      77623.4  50 2500  50   0
57       585623 160    0 160   0
58       242573 160    0 160   0
59      -183365  60    0  60 120
60     -86725.2  60    0  60 120
61       183365  50 2500  50   0
62      86725.2  50 2500  50   0
63       573016 160    0 160   0
64       271016 160    0 160   0
65      -178889  60    0  60 120
66       -95618  60    0  60 120
67       178889  50 2500  50   0
68        95618  50 2500  50   0
69       559027 160    0 160   0
70       298806 160    0 160   0
71      -173981  60    0  60 120
72      -104280  60    0  60 120
73       173981  50 2500  50   0
74       104280  50 2500  50   0
75       543692 160    0 160   0
76       325876 160    0 160   0
77      -168655  60    0  60 120
78      -112692  60    0  60 120
79       168655  50 2500  50   0
80       112692  50 2500  50   0
81       527047 160    0 160   0
82       352162 160    0 160   0
83      -162922  60    0  60 120
84      -120832  60    0  60 120
85       162922  50 2500  50   0
86       120832  50 2500  50   0
87       509133 160    0 160   0
88       377598 160    0 160   0
89      -156797  60    0  60 120
90      -128680  60    0  60 120
91       156797  50 2500  50   0
92       128680  50 2500  50   0
93       489991 160    0 160   0
94       402126 160    0 160   0
95      -150294  60    0  60 120
96      -136219  60    0  60 120
97       150294  50 2500  50   0
98       136219  50 2500  50   0
99       469670 160    0 160   0
100       425684 160    0 160   0
101      -143429  60    0  60 120
102       143429  50 2500  50   0
103       448217 160    0 160   0
104 -1.24204e-11  60    0  60 120
105  1.24204e-11  50 2500  50   0
106  3.88136e-11 160    0 160   0
107      9952.88  60    0  60 120
108     -9952.88  50 2500  50   0
109     -31102.7 160    0 160   0
110      19881.8  60    0  60 120
111     -19881.8  50 2500  50   0
112     -62130.5 160    0 160   0
113      29762.8  60    0  60 120
114     -29762.8  50 2500  50   0
115     -93008.7 160    0 160   0
116      39572.1  60    0  60 120
117     -39572.1  50 2500  50   0
118      -123663 160    0 160   0
119        49286  60    0  60 120
120       -49286  50 2500  50   0
121      -154019 160    0 160   0
122      58881.3  60    0  60 120
123     -58881.3  50 2500  50   0
124      -184004 160    0 160   0
125      68334.7  60    0  60 120
126     -68334.7  50 2500  50   0
127      -213546 160    0 160   0
128      77623.4  60    0  60 120
129     -77623.4  50 2500  50   0
130      -242573 160    0 160   0
131      86725.2  60    0  60 120
132     -86725.2  50 2500  50   0
133      -271016 160    0 160   0
134        95618  60    0  60 120
135       -95618  50 2500  50   0
136      -298806 160    0 160   0
137       104280  60    0  60 120
138      -104280  50 2500  50   0
139      -325876 160    0 160   0
140       112692  60    0  60 120
141      -112692  50 2500  50   0
142      -352162 160    0 160   0
143       120832  60    0  60 120
144      -120832  50 2500  50   0
145      -377598 160    0 160   0
146       128680  60    0  60 120
147      -128680  50 2500  50   0
148      -402126 160    0 160   0
149       136219  60    0  60 120
150      -136219  50 2500  50   0
151      -425684 160    0 160   0
152       143429  60    0  60 120
153      -143429  50 2500  50   0
154      -448217 160    0 160   0
155       150294  60    0  60 120
156      -150294  50 2500  50   0
157      -469670 160    0 160   0
158       156797  60    0  60 120
159      -156797  50 2500  50   0
160      -489991 160    0 160   0
161       162922  60    0  60 120
162      -162922  50 2500  50   0
163      -509133 160    0 160   0
164       168655  60    0  60 120
165      -168655  50 2500  50   0
166      -527047 160    0 160   0
167       173981  60    0  60 120
168      -173981  50 2500  50   0
169      -543692 160    0 160   0
170       178889  60    0  60 120
171      -178889  50 2500  50   0
172      -559027 160    0 160   0
173       183365  60    0  60 120
174      -183365  50 2500  50   0
175      -573016 160    0 160   0
176       187399  60    0  60 120
177      -187399  50 2500  50   0
178      -585623 160    0 160   0
179       190983  60    0  60 120
180      -190983  50 2500  50   0
181      -596821 160    0 160   0
182       194106  60    0  60 120
183      -194106  50 2500  50   0
184      -606580 160    0 160   0
185       196761  60    0  60 120
186      -196761  50 2500  50   0
187      -614878 160    0 160   0
188       198942  60    0  60 120
189      -198942  50 2500  50   0
190      -621695 160    0 160   0
191       200644  60    0  60 120
192      -200644  50 2500  50   0
193      -627014 160    0 160   0
194       201863  60    0  60 120
195      -201863  50 2500  50   0
196      -630822 160    0 160   0
197       202595  60    0  60 120
198      -202595  50 2500  50   0
199      -633111 160    0 160   0
200       202840  60    0  60 120
201 -2.48407e-11  60    0  60 120
202      -202840  50 2500  50   0
203  2.48407e-11  50 2500  50   0
204      -633874 160    0 160   0
205  7.76272e-11 160    0 160   0
206  3.72611e-11  60    0  60 120
207 -3.72611e-11  50 2500  50   0
208 -1.16441e-10 160    0 160   0

# Format of ADC events:
# id num dwell delay freq phase
# ..  ..    ns    us   Hz   rad
[ADC]
1 500 5000 50 0 0
2 500 5000 50 0 2.04204
3 500 5000 50 0 6.12611
4 500 5000 50 0 5.96903
5 500 5000 50 0 1.5708
6 500 5000 50 0 5.49779
7 500 5000 50 0 5.18363
8 500 5000 50 0 0.628319
9 500 5000 50 0 4.39823
10 500 5000 50 0 3.92699
11 500 5000 50 0 2.82743
12 500 5000 50 0 2.19911
13 500 5000 50 0 3.61283
14 500 5000 50 0 0.785398
15 500 5000 50 0 1.25664
16 500 5000 50 0 4.55531
17 500 5000 50 0 4.71239
18 500 5000 50 0 0.471239
19 500 5000 50 0 1.41372
20 500 5000 50 0 3.14159
21 500 5000 50 0 5.34071
22 500 5000 50 0 2.35619
23 500 5000 50 0 3.76991
24 500 5000 50 0 2.98451

# Format of delays:
# id delay (us)
[DELAYS]
1 5840

# Sequence Shapes
[SHAPES]

shape_id 1
num_samples 1020
0.001001
0.0010029
0.0010047
0.0010064
0.0010081
0.0010095
0.0010111
0.0010123
0.0010136
0.0010148
0.0010158
0.0010168
0.0010177
0.0010184
0.001019
0.0010197
0.0010201
0.0010206
0.0010208
0.0010209
0.0010211
0.0010211
0
0.0010209
0.0010208
0.0010204
0.0010201
0.0010195
0.0010189
0.0010183
0.0010174
0.0010166
0.0010155
0.0010145
0.0010133
0.001012
0.0010106
0.0010091
0.0010075
0.0010059
0.0010041
0.0010022
0.0010002
0.0009981
0.000996
0.0009937
0.0009914
0.0009889
0.0009863
0.0009837
0.0009809
0.0009781
0.0009751
0.0009721
0.0009689
0.0009658
0.0009624
0.000959
0.0009554
0.0009519
0.0009482
0.0009444
0.0009405
0.0009365
0.0009324
0.0009283
0.000924
0.0009197
0.0009153
0.0009107
0.0009062
0.0009014
0.0008966
0.0008918
0.0008868
0.0008817
0.0008766
0.0008714
0.0008661
0.0008607
0.0008552
0.0008496
0.0008441
0.0008383
0.0008324
0.0008266
0.0008207
0.0008146
0.0008085
0.0008022
0.000796
0.0007897
0.0007832
0.0007767
0.0007701
0.0007634
0.0007568
0.0007499
0.0007431
0.0007361
0.0007292
0.000722
0.0007149
0.0007077
0.0007004
0.000693
0.0006857
0.0006782
0.0006706
0.000663
0.0006554
0.0006476
0.0006399
0.0006321
0.0006241
0.0006162
0.0006082
0.0006001
0.000592
0.0005838
0.0005756
0.0005674
0.000559
0.0005506
0.0005423
0.0005337
0.0005253
0.0005167
0.0005081
0.0004995
0.0004908
0.0004821
0.0004733
0.0004645
0.0004557
0.0004468
0.0004378
0.000429
0.00042
0.0004109
0.000402
0.0003928
0.0003838
0.0003746
0.0003655
0.0003564
0.0003471
0.0003379
0.0003286
0.0003194
0.0003101
0.0003008
0.0002915
0.0002822
0.0002728
0.0002634
0.0002541
0.0002447
0.0002353
0.0002259
0.0002164
0.0002071
0.0001976
0.0001881
0.0001788
0.0001693
0.0001599
0.0001504
0.000141
0.0001316
0.0001221
0.0001127
0.0001033
9.38e-05
8.45e-05
7.51e-05
6.57e-05
5.63e-05
4.7e-05
3.76e-05
2.83e-05
1.89e-05
9.7e-06
4e-07
-8.8e-06
-1.81e-05
-2.73e-05
-3.65e-05
-4.57e-05
-5.48e-05
-6.39e-05
-7.3e-05
-8.2e-05
-9.11e-05
-0.0001001
-0.000109
-0.000118
-0.0001268
-0.0001358
-0.0001445
-0.0001533
-0.0001621
-0.0001708
-0.0001794
-0.0001881
-0.0001966
-0.0002052
-0.0002136
-0.0002222
-0.0002305
-0.0002388
-0.0002472
-0.0002554
-0.0002636
-0.0002717
-0.0002798
-0.0002879
-0.0002959
-0.0003037
-0.0003117
-0.0003194
-0.0003272
-0.0003349
-0.0003425
-0.0003501
-0.0003576
-0.0003651
-0.0003724
-0.0003797
-0.000387
-0.0003941
-0.0004013
-0.0004083
-0.0004153
-0.0004221
-0.0004291
-0.0004357
-0.0004425
-0.000449
-0.0004556
-0.0004621
-0.0004684
-0.0004748
-0.000481
-0.0004871
-0.0004932
-0.0004992
-0.0005051
-0.000511
-0.0005167
-0.0005224
-0.000528
-0.0005335
-0.0005389
-0.0005442
-0.0005495
-0.0005547
-0.0005597
-0.0005648
-0.0005696
-0.0005745
-0.0005792
-0.0005838
-0.0005884
-0.0005929
-0.0005972
-0.0006015
-0.0006057
-0.0006098
-0.0006139
-0.0006177
-0.0006216
-0.0006253
-0.0006289
-0.0006325
-0.000636
-0.0006393
-0.0006426
-0.0006457
-0.0006489
-0.0006518
-0.0006547
-0.0006575
-0.0006602
-0.0006627
-0.0006653
-0.0006678
-0.00067
-0.0006722
-0.0006744
-0.0006764
-0.0006783
-0.0006802
-0.0006819
-0.0006835
-0.0006851
-0.0006865
-0.0006879
-0.0006892
-0.0006903
-0.0006913
-0.0006924
-0.0006932
-0.000694
-0.0006946
-0.0006953
-0.0006958
-0.0006961
-0.0006965
-0.0006966
-0.0006968
-0.0006968
0
-0.0006967
-0.0006965
-0.0006963
-0.000696
-0.0006955
-0.0006949
-0.0006943
-0.0006936
-0.0006928
-0.0006919
-0.0006909
-0.0006898
-0.0006886
-0.0006874
-0.000686
-0.0006846
-0.0006831
-0.0006814
-0.0006798
-0.000678
-0.0006761
-0.0006741
-0.0006722
-0.00067
-0.0006678
-0.0006655
-0.0006631
-0.0006607
-0.0006582
-0.0006556
-0.0006529
-0.0006501
-0.0006473
-0.0006444
-0.0006414
-0.0006383
-0.0006352
-0.000632
-0.0006287
-0.0006254
-0.0006219
-0.0006184
-0.0006149
-0.0006112
-0.0006076
-0.0006037
-0.0006
-0.000596
-0.0005921
-0.0005881
-0.000584
-0.0005799
-0.0005757
-0.0005714
-0.0005671
-0.0005627
-0.0005583
-0.0005539
-0.0005493
-0.0005447
-0.0005401
-0.0005354
-0.0005306
-0.0005259
-0.0005211
-0.0005162
-0.0005113
-0.0005064
-0.0005013
-0.0004963
-0.0004912
-0.0004862
-0.0004809
-0.0004758
-0.0004706
-0.0004653
-0.00046
-0.0004547
-0.0004494
-0.000444
-0.0004386
-0.0004332
-0.0004277
-0.0004223
-0.0004168
-0.0004113
-0.0004057
-0.0004002
-0.0003947
-0.000389
-0.0003835
-0.0003779
-0.0003722
-0.0003667
-0.000361
-0.0003554
-0.0003497
-0.0003441
-0.0003385
-0.0003328
-0.0003271
-0.0003216
-0.0003159
-0.0003102
-0.0003046
-0.000299
-0.0002934
-0.0002878
-0.0002822
-0.0002767
-0.0002711
-0.0002655
-0.00026
-0.0002545
-0.000249
-0.0002436
-0.0002381
-0.0002327
-0.0002273
-0.000222
-0.0002166
-0.0002114
-0.0002061
-0.0002008
-0.0001956
-0.0001905
-0.0001854
-0.0001803
-0.0001752
-0.0001702
-0.0001653
-0.0001604
-0.0001555
-0.0001507
-0.000146
-0.0001412
-0.0001365
-0.000132
-0.0001274
-0.0001229
-0.0001185
-0.0001141
-0.0001098
-0.0001055
-0.0001013
-9.73e-05
-9.31e-05
-8.92e-05
-8.52e-05
-8.14e-05
-7.76e-05
-7.4e-05
-7.02e-05
-6.68e-05
-6.32e-05
-5.99e-05
-5.65e-05
-5.33e-05
-5.02e-05
-4.7e-05
-4.41e-05
-4.12e-05
-3.84e-05
-3.57e-05
-3.3e-05
-3.05e-05
-2.8e-05
-2.57e-05
-2.35e-05
-2.12e-05
-1.92e-05
-1.73e-05
-1.54e-05
-1.36e-05
-1.19e-05
-1.04e-05
-8.9e-06
-7.6e-06
-6.4e-06
-5.2e-06
-4.2e-06
-3.2e-06
-2.5e-06
-1.8e-06
-1.1e-06
-8e-07
-3e-07
-2e-07
0
0
0
2e-07
3e-07
8e-07
1.2e-06
1.8e-06
2.6e-06
3.4e-06
4.3e-06
5.5e-06
6.7e-06
8.1e-06
9.6e-06
1.11e-05
1.29e-05
1.48e-05
1.68e-05
1.89e-05
2.12e-05
2.36e-05
2.62e-05
2.88e-05
3.16e-05
3.46e-05
3.77e-05
4.08e-05
4.43e-05
4.77e-05
5.13e-05
5.52e-05
5.9e-05
6.31e-05
6.73e-05
7.16e-05
7.61e-05
8.07e-05
8.54e-05
9.04e-05
9.54e-05
0.0001006
0.0001059
0.0001114
0.0001171
0.0001228
0.0001286
0.0001348
0.0001409
0.0001473
0.0001538
0.0001604
0.0001672
0.0001741
0.0001811
0.0001884
0.0001958
0.0002032
0.0002109
0.0002187
0.0002266
0.0002348
0.0002429
0.0002513
0.0002599
0.0002685
0.0002774
0.0002863
0.0002954
0.0003046
0.000314
0.0003236
0.0003332
0.0003431
0.000353
0.0003631
0.0003734
0.0003837
0.0003943
0.0004049
0.0004158
0.0004267
0.0004378
0.000449
0.0004603
0.0004719
0.0004835
0.0004953
0.0005072
0.0005192
0.0005314
0.0005437
0.0005562
0.0005687
0.0005814
0.0005943
0.0006072
0.0006204
0.0006335
0.0006469
0.0006604
0.000674
0.0006877
0.0007016
0.0007155
0.0007297
0.0007438
0.0007582
0.0007726
0.0007873
0.0008018
0.0008167
0.0008317
0.0008466
0.0008618
0.000877
0.0008924
0.0009079
0.0009235
0.0009391
0.0009549
0.0009708
0.0009868
0.001003
0.0010191
0.0010353
0.0010518
0.0010683
0.0010848
0.0011015
0.0011183
0.0011352
0.001152
0.0011691
0.0011862
0.0012034
0.0012207
0.0012381
0.0012554
0.001273
0.0012906
0.0013082
0.001326
0.0013438
0.0013617
0.0013796
0.0013976
0.0014157
0.0014339
0.001452
0.0014703
0.0014886
0.001507
0.0015254
0.0015439
0.0015624
0.0015809
0.0015996
0.0016183
0.001637
0.0016557
0.0016745
0.0016933
0.0017122
0.0017311
0.00175
0.001769
0.0017879
0.001807
0.001826
0.001845
0.0018641
0.0018832
0.0019023
0.0019214
0.0019406
0.0019597
0.0019788
0.001998
0.0020171
0.0020363
0.0020555
0.0020746
0.0020937
0.0021129
0.002132
0.0021512
0.0021702
0.0021893
0.0022084
0.0022275
0.0022465
0.0022655
0.0022845
0.0023034
0.0023224
0.0023412
0.0023601
0.0023789
0.0023977
0.0024164
0.0024351
0.0024538
0.0024724
0.0024909
0.0025094
0.0025278
0.0025463
0.0025646
0.0025828
0.002601
0.0026192
0.0026373
0.0026552
0.0026732
0.002691
0.0027088
0.0027265
0.0027442
0.0027616
0.0027791
0.0027965
0.0028138
0.0028309
0.0028481
0.002865
0.0028819
0.0028988
0.0029154
0.002932
0.0029485
0.0029649
0.0029811
0.0029973
0.0030133
0.0030293
0.0030451
0.0030607
0.0030763
0.0030917
0.003107
0.0031222
0.0031373
0.0031522
0.0031669
0.0031816
0.0031961
0.0032104
0.0032246
0.0032387
0.0032527
0.0032664
0.00328
0.0032935
0.0033068
0.00332
0.0033329
0.0033458
0.0033584
0.003371
0.0033833
0.0033955
0.0034074
0.0034193
0.003431
0.0034424
0.0034537
0.0034649
0.0034758
0.0034865
0.0034972
0.0035075
0.0035177
0.0035277
0.0035375
0.0035472
0.0035566
0.0035658
0.0035749
0.0035837
0.0035923
0.0036008
0.003609
0.0036171
0.0036248
0.0036325
0.0036399
0.003647
0.0036541
0.0036608
0.0036673
0.0036737
0.0036798
0.0036857
0.0036913
0.0036968
0.003702
0.0037071
0.0037118
0.0037164
0.0037206
0.0037248
0.0037287
0.0037322
0.0037357
0.0037388
0.0037418
0.0037445
0.0037469
0.0037491
0.0037511
0.0037529
0.0037543
0.0037557
0.0037566
0.0037574
0.0037579
0.0037583
0.0037582
0.0037581
0.0037576
0.0037569
0.003756
0.0037547
0.0037533
0.0037516
0.0037497
0.0037474
0.003745
0.0037423
0.0037394
0.0037361
0.0037327
0.0037289
0.003725
0.0037207
0.0037163
0.0037115
0.0037065
0.0037013
0.0036957
0.00369
0.0036839
0.0036777
0.0036712
0.0036643
0.0036573
0.00365
0.0036424
0.0036346
0.0036265
0.0036182
0.0036096
0.0036007
0.0035916
0.0035823
0.0035726
0.0035628
0.0035526
0.0035422
0.0035316
0.0035206
0.0035095
0.0034981
0.0034864
0.0034745
0.0034624
0.0034499
0.0034372
0.0034243
0.0034111
0.0033976
0.003384
0.00337
0.0033559
0.0033414
0.0033267
0.0033119
0.0032966
0.0032812
0.0032656
0.0032496
0.0032335
0.0032171
0.0032005
0.0031836
0.0031665
0.0031491
0.0031315
0.0031137
0.0030957
0.0030773
0.0030589
0.00304
0.0030211
0.0030018
0.0029824
0.0029628
0.0029428
0.0029227
0.0029023
0.0028818
0.002861
0.0028399
0.0028188
0.0027973
0.0027756
0.0027537
0.0027317
0.0027093
0.0026869
0.0026641
0.0026412
0.0026181
0.0025947
0.0025712
0.0025475
0.0025235
0.0024994
0.0024751
0.0024506
0.0024259
0.002401
0.0023759
0.0023506
0.0023252
0.0022995
0.0022738
0.0022477
0.0022216
0.0021952
0.0021687
0.002142
0.0021152
0.0020881
0.0020609
0.0020336
0.0020061
0.0019785
0.0019505
0.0019227
0.0018945
0.0018662
0.0018377
0.0018092
0.0017805
0.0017516
0.0017227
0.0016934
0.0016643
0.0016348
0.0016053
0.0015756
0.0015458
0.001516
0.0014859
0.0014557
0.0014255
0.0013951
0.0013646
0.001334
0.0013034
0.0012725
0.0012416
0.0012105
0.0011795
0.0011483
0.001117
0.0010856
0.0010541
0.0010226
0.0009909
0.0009593
0.0009274
0.0008955
0.0008637
0.0008316
0.0007995
0.0007674
0.0007352
0.000703
0.0006706
0.0006383
0.0006058
0.0005734
0.0005408
0.0005083
0.0004757
0.000443
0.0004104
0.0003776
0.000345
0.0003121
0.0002794
0.0002465
0.0002138
0.0001808
0.000148
0.0001152
8.22e-05
